1478928623.00
64.000000
-0.00
-0.00
-0.00
-0.00
-0.00
-0.00
-0.00
-0.00
-0.00
-0.00
0.00
0.01
0.01
-0.00
-0.03
-0.05
-0.05
0.00
0.13
0.36
0.66
1.01
1.37
1.72
2.06
2.40
2.79
3.24
3.80
4.42
5.06
5.66
6.20
6.68
7.15
7.68
8.31
9.14
10.09
11.04
11.88
12.56
13.14
13.76
14.65
15.96
17.91
20.32
22.90
25.38
27.58
29.57
31.68
34.32
37.81
42.54
48.15
54.10
59.83
64.97
69.58
74.14
79.34
85.71
93.76
103.00
112.62
121.73
129.77
136.75
143.30
150.75
157.77
166.64
177.95
191.79
206.97
220.57
228.25
225.36
208.53
176.87
132.76
80.05
23.07
-34.94
-92.44
-149.16
-205.23
-260.37
-313.74
-363.87
-409.83
-450.91
-486.50
-515.74
-537.23
-549.22
-549.96
-538.37
-514.21
-478.67
-433.88
-382.45
-327.02
-269.84
-212.63
-156.66
-102.95
-52.37
-5.90
35.58
71.43
101.35
125.50
144.38
158.69
169.15
176.37
180.75
182.57
182.07
179.51
175.23
169.65
163.18
156.15
148.81
141.30
133.69
126.02
118.33
110.69
103.16
95.80
88.68
81.83
75.25
68.95
62.95
57.25
51.86
46.78
42.03
37.59
33.45
29.61
26.07
22.81
19.83
17.11
14.67
12.48
10.54
8.83
7.35
6.07
4.97
4.05
3.27
2.62
2.09
1.65
1.30
1.01
0.79
0.61
0.47
0.37
0.29
0.23
0.19
0.16
0.15
0.14
0.15
0.17
0.19
0.22
0.25
0.29
0.33
0.37
0.41
0.46
0.51
0.56
0.61
0.67
0.72
0.78
0.85
0.92
1.00
1.09
1.19
1.30
1.42
1.56
1.72
1.89
2.08
2.30
2.53
2.80
3.08
3.41
3.76
4.14
4.55
5.01
5.49
6.02
6.59
7.20
7.85
8.55
9.29
10.08
10.91
11.79
12.72
13.69
14.73
15.82
16.99
18.22
19.49
20.79
22.07
23.26
24.28
25.00
25.31
25.07
24.21
22.63
20.33
17.33
13.68
9.55
5.11
0.56
-3.89
-8.02
-11.65
-14.65
-16.90
-18.39
-19.12
-19.21
-18.77
-17.96
-16.89
-15.68
-14.35
-12.94
-11.44
-9.83
-8.19
-6.59
-5.10
-3.71
-2.42
-1.14
0.22
1.77
3.59
5.59
7.65
9.70
11.70
13.69
15.80
18.19
21.00
24.32
27.79
31.07
33.86
36.05
37.74
39.25
41.04
43.52
46.92
50.68
54.15
56.75
58.18
58.55
58.36
58.33
59.01
60.65
62.29
62.80
61.10
56.48
48.72
37.92
24.08
6.38
-12.18
-31.18
-50.97
-72.24
-95.86
-122.61
-152.73
-185.22
-217.34
-244.58
-262.26
-266.33
-255.17
-230.64
-197.67
-162.50
-130.40
-104.02
-83.02
-65.67
-49.56
-32.66
-13.55
8.78
34.91
64.57
95.93
125.46
148.27
159.91
158.18
143.98
121.19
95.19
71.00
51.77
38.13
28.63
20.77
12.39
2.11
-10.38
-24.52
-39.33
-53.68
-66.64
-77.69
-86.69
-93.59
-98.02
-98.82
-93.96
-81.19
-59.01
-27.70
10.27
50.70
88.75
120.08
141.82
152.99
154.38
148.09
136.78
122.82
107.59
91.35
73.89
55.21
36.35
19.09
5.30
-3.93
-8.79
-10.57
-10.89
-10.82
-10.49
-9.15
-6.16
-1.86
1.87
2.02
-4.34
-18.46
-38.92
-61.83
-82.49
-97.60
-106.61
-111.80
-116.70
-124.12
-134.96
-147.99
-160.59
-169.55
-171.66
-164.10
-145.13
-115.11
-76.95
-35.82
2.37
32.94
53.87
65.99
71.90
74.35
75.10
74.91
74.07
72.97
72.30
72.63
74.00
75.82
77.40
78.43
79.31
80.65
82.61
84.43
84.63
81.94
76.18
68.49
60.68
54.21
49.25
44.88
39.72
32.94
24.57
15.25
5.50
-4.70
-16.03
-29.50
-45.95
-65.58
-87.46
-109.17
-126.94
-136.47
-134.36
-119.68
-94.65
-64.09
-33.68
-8.04
10.36
21.13
25.00
22.99
16.10
5.65
-6.34
-17.21
-24.42
-26.25
-22.29
-13.34
-0.88
13.36
27.63
40.25
49.58
54.40
54.21
49.74
42.98
36.77
33.73
35.36
41.42
50.11
58.96
65.83
69.45
69.56
66.26
59.61
49.56
36.18
19.89
1.53
-17.94
-37.46
-55.64
-70.32
-78.68
-77.83
-66.28
-45.02
-17.74
10.30
34.07
50.23
57.58
56.62
48.74
35.84
20.33
5.14
-6.72
-13.14
-13.77
-10.20
-5.11
-1.03
0.93
1.62
3.17
7.86
16.76
28.96
41.69
51.38
54.98
51.20
40.93
26.59
10.92
-4.04
-17.28
-28.47
-37.49
-44.44
-50.01
-55.88
-64.47
-77.86
-96.37
-117.66
-136.99
-148.37
-146.42
-127.93
-92.95
-45.10
8.82
60.12
100.29
123.29
127.30
115.04
92.48
66.37
42.07
22.32
7.64
-2.53
-8.63
-10.51
-7.94
-1.41
7.54
16.68
24.15
29.35
33.15
37.07
42.00
47.07
49.78
47.09
37.07
20.22
-0.32
-19.88
-34.16
-41.05
-41.53
-39.36
-39.56
-46.49
-62.01
-84.56
-109.41
-129.92
-139.51
-133.64
-111.10
-74.51
-29.35
17.39
59.40
92.41
114.85
127.51
132.34
131.28
125.71
116.43
104.15
89.82
74.71
60.22
47.57
37.75
31.58
29.68
32.40
39.31
49.08
59.45
67.85
72.01
70.60
63.41
51.15
35.23
17.30
-0.87
-17.82
-32.77
-45.66
-57.61
-70.52
-86.64
-107.46
-132.46
-158.42
-179.85
-190.61
-186.19
-165.67
-132.21
-91.96
-51.91
-17.85
7.07
22.42
29.66
31.05
28.68
24.08
18.10
11.17
3.45
-4.76
-12.90
-20.01
-25.13
-27.87
-28.87
-29.62
-31.69
-35.68
-40.75
-45.07
-47.21
-47.64
-49.28
-56.66
-73.71
-101.46
-137.11
-174.84
-208.24
-232.66
-246.36
-250.14
-245.77
-234.68
-217.75
-195.96
-171.16
-146.11
-123.27
-103.43
-84.81
-63.87
-37.38
-4.52
32.24
68.08
98.18
120.16
135.05
146.55
158.63
173.32
189.77
205.22
217.01
224.21
228.09
230.96
234.73
239.77
244.87
248.22
248.29
244.34
236.23
223.98
207.67
187.76
165.62
143.63
124.73
111.47
105.20
105.56
110.61
117.32
122.36
122.51
114.98
97.63
69.51
31.49
-12.97
-57.76
-95.29
-118.27
-121.99
-105.54
-71.79
-26.53
23.02
69.10
104.03
121.09
116.10
88.89
44.49
-7.41
-55.13
-88.92
-104.00
-101.74
-87.85
-68.76
-49.39
-31.85
-16.28
-2.67
7.92
13.68
13.14
7.00
-0.99
-6.34
-5.46
3.26
18.82
38.40
58.80
76.95
90.75
99.63
102.56
98.97
89.82
77.09
62.37
49.78
42.83
40.85
41.07
38.50
29.11
10.19
-20.12
-62.45
-115.70
-178.14
-247.66
-309.52
-350.46
-364.73
-355.95
-334.17
-308.88
-284.57
-262.18
-240.82
-218.99
-197.72
-185.92
-182.64
-187.06
-199.67
-220.09
-246.88
-276.71
-304.10
-324.40
-334.73
-334.30
-318.31
-289.88
-254.87
-219.31
-187.02
-158.77
-134.25
-112.92
-93.80
-76.95
-63.30
-52.33
-42.47
-31.99
-19.86
-6.69
5.85
16.55
24.62
29.67
33.06
36.86
42.91
52.03
63.49
75.53
86.47
95.12
100.93
104.91
108.95
114.95
123.98
136.02
150.06
164.76
178.97
191.97
204.06
216.53
231.37
250.82
276.56
308.54
343.89
376.76
399.37
404.51
388.08
350.72
297.76
237.66
179.68
131.76
99.10
83.56
83.73
95.42
112.45
127.89
135.65
131.90
115.97
90.28
59.53
29.46
5.51
-8.26
-9.88
0.07
18.56
40.95
62.17
78.12
86.73
88.14
84.16
77.25
69.42
61.66
53.97
45.94
37.28
27.86
17.73
6.70
-5.69
-19.94
-36.19
-53.93
-72.23
-90.02
-106.49
-120.97
-132.64
-140.08
-141.30
-134.22
-117.62
-92.08
-60.35
-26.79
3.89
28.18
44.78
54.56
59.64
62.11
62.91
61.77
57.86
50.72
40.65
28.55
15.29
1.15
-13.89
-29.50
-44.33
-56.05
-62.28
-61.98
-56.23
-47.90
-40.39
-35.88
-34.45
-34.31
-32.99
-28.74
-21.22
-11.38
-0.92
8.30
14.60
16.61
13.69
6.41
-3.23
-12.25
-17.99
-19.57
-18.59
-18.31
-21.93
-30.57
-42.57
-54.19
-61.49
-62.11
-56.16
-45.76
-33.88
-23.38
-16.18
-13.16
-14.25
-18.56
-24.36
-29.42
-31.43
-28.64
-20.62
-8.52
5.05
16.73
23.43
23.29
16.23
3.83
-11.38
-27.06
-41.89
-55.64
-68.62
-80.61
-90.18
-94.90
-92.19
-80.66
-60.96
-35.60
-8.12
18.21
41.32
60.60
76.42
89.26
99.20
105.64
107.62
104.44
96.13
83.69
69.04
54.42
41.75
31.99
25.07
20.28
16.88
14.54
13.35
13.42
14.47
15.73
16.46
16.29
15.34
13.68
10.63
4.54
-6.49
-23.17
-43.83
-64.36
-79.55
-85.22
-79.98
-65.61
-45.95
-25.18
-6.26
9.49
21.97
31.56
38.65
43.72
47.43
50.58
53.58
56.03
56.69
53.94
46.82
35.72
22.56
10.09
0.81
-3.97
-4.62
-2.79
-0.72
-0.29
-2.44
-7.02
-13.17
-19.94
-26.84
-34.19
-42.86
-53.77
-67.09
-81.79
-95.56
-105.36
-108.29
-102.46
-87.60
-65.17
-38.01
-9.70
16.16
36.75
50.38
56.78
57.00
53.01
47.08
41.25
36.80
34.10
32.85
32.32
31.83
30.90
29.42
27.61
25.88
24.75
24.68
25.86
28.05
30.45
31.78
30.54
25.58
16.51
3.96
-10.52
-24.95
-37.62
-47.71
-55.70
-63.02
-71.38
-81.65
-93.06
-102.99
-107.64
-103.43
-88.50
-63.75
-32.78
-0.92
26.57
46.01
56.27
58.65
56.02
51.63
48.15
47.16
48.98
52.81
56.99
59.54
58.70
53.66
44.97
34.43
24.51
17.29
13.58
12.54
12.07
9.76
3.97
-5.48
-17.25
-28.94
-38.00
-42.58
-42.24
-38.41
-34.21
-33.84
-41.20
-58.24
-83.65
-112.64
-138.22
-153.60
-154.79
-142.01
-119.33
-92.75
-67.71
-47.36
-32.29
-21.33
-12.84
-5.66
0.76
6.57
11.82
16.53
20.63
23.95
26.50
28.59
30.85
34.00
38.46
44.22
50.94
58.20
65.62
72.79
78.98
83.21
84.27
81.26
73.90
62.68
48.77
33.58
18.36
3.72
-10.41
-24.82
-40.55
-58.18
-77.15
-95.36
-109.58
-116.46
-113.85
-101.69
-82.01
-57.99
-32.82
-8.76
12.94
31.66
46.85
57.87
64.21
65.90
63.79
59.39
54.45
50.37
47.75
46.28
44.88
42.15
37.06
29.69
21.46
14.89
12.66
16.47
26.19
39.76
53.73
64.39
68.95
66.24
57.04
43.61
28.94
15.68
5.31
-2.20
-8.03
-13.94
-21.42
-31.24
-43.14
-55.86
-67.25
-74.54
-74.93
-66.47
-48.93
-24.32
3.44
29.58
49.91
62.03
65.66
62.37
54.71
45.49
37.09
31.14
28.28
28.18
29.87
32.18
34.28
35.88
37.22
38.74
40.70
42.97
45.02
46.13
45.73
43.50
39.47
33.81
26.70
18.24
8.56
-1.99
-12.80
-23.03
-31.98
-39.56
-46.58
-54.56
-64.88
-77.75
-91.38
-102.08
-105.38
-97.87
-78.65
-50.05
-16.75
15.70
42.78
62.06
73.34
77.95
77.66
73.86
67.30
58.12
46.30
32.03
16.00
-0.48
-15.63
-27.53
-34.57
-35.82
-31.16
-21.30
-7.68
7.69
22.28
33.39
38.74
37.21
29.34
17.19
3.68
-8.56
-18.15
-25.31
-31.52
-38.69
-48.44
-61.61
-78.14
-96.91
-115.82
-131.69
-140.76
-139.66
-126.61
-102.50
-70.91
-37.17
-6.57
17.27
33.29
42.76
48.22
52.21
56.31
60.84
65.11
67.94
68.17
65.09
58.61
49.12
37.36
24.08
10.07
-3.86
-16.75
-27.61
-35.86
-41.71
-46.44
-51.97
-60.15
-71.86
-86.42
-101.70
-114.83
-123.11
-125.08
-120.92
-112.51
-102.66
-94.30
-89.44
-88.45
-89.79
-90.37
-86.59
-75.69
-56.77
-31.39
-3.00
24.29
47.27
64.67
77.45
87.91
98.37
109.84
121.73
132.36
140.02
144.00
144.69
143.19
140.39
136.31
130.20
121.04
108.40
93.02
76.61
61.32
48.93
40.25
35.11
32.53
31.09
29.13
24.91
16.89
4.09
-13.32
-33.76
-54.39
-71.98
-83.99
-89.48
-89.52
-86.84
-84.86
-86.51
-93.19
-104.13
-116.45
-125.74
-127.42
-118.28
-97.85
-68.87
-36.66
-7.32
14.37
26.58
30.77
30.68
30.50
33.08
39.03
46.87
54.01
58.06
57.83
53.77
47.63
41.84
38.64
39.33
43.79
50.53
57.15
61.11
60.46
54.46
43.56
29.11
12.75
-4.03
-20.17
-35.03
-48.26
-59.67
-69.13
-76.59
-82.27
-86.72
-90.75
-95.03
-99.49
-102.93
-103.04
-97.05
-82.81
-59.97
-30.53
1.55
31.39
54.66
68.77
73.42
70.35
62.71
54.06
47.49
44.78
46.06
49.96
54.24
56.79
56.36
52.82
46.76
38.99
30.07
20.33
10.16
0.18
-8.85
-16.61
-23.48
-30.48
-38.52
-47.68
-56.85
-64.23
-68.42
-69.48
-69.37
-71.09
-77.20
-88.18
-101.58
-112.64
-115.88
-107.26
-85.66
-53.41
-15.43
22.23
53.93
75.57
85.17
82.91
70.99
53.23
34.47
19.44
11.48
11.53
17.80
26.50
33.31
35.14
31.29
23.63
15.61
10.56
10.23
13.97
19.26
22.93
22.77
18.35
11.04
2.95
-4.18
-9.89
-14.95
-20.95
-29.49
-41.49
-56.77
-73.90
-90.36
-102.92
-108.39
-104.39
-90.15
-66.92
-37.78
-7.02
20.90
42.40
55.50
60.04
57.54
50.60
42.16
34.77
29.94
27.86
27.50
27.20
25.41
21.52
16.02
10.23
5.41
2.03
-0.50
-3.41
-7.75
-13.97
-21.80
-30.87
-41.19
-53.24
-67.50
-83.71
-100.77
-117.14
-131.69
-144.22
-155.17
-164.63
-171.43
-172.90
-165.64
-147.00
-116.21
-74.57
-24.81
29.85
86.16
140.71
189.65
229.01
255.84
269.69
273.23
271.38
269.05
268.73
269.47
267.70
259.55
243.17
219.80
193.00
166.85
144.17
125.72
110.59
97.15
83.85
69.57
53.57
35.28
14.31
-9.39
-35.24
-62.12
-88.64
-113.59
-136.20
-156.36
-174.36
-190.77
-205.90
-219.31
-229.22
-232.31
-223.96
-199.50
-156.27
-95.82
-25.28
43.46
96.76
123.85
120.55
90.81
45.36
-2.49
-41.03
-63.59
-69.93
-65.19
-57.13
-53.19
-57.75
-71.15
-90.25
-109.97
-125.04
-131.45
-127.14
-111.97
-87.08
-54.26
-15.49
27.26
71.74
114.92
152.75
180.17
191.86
183.64
154.37
106.85
47.64
-14.73
-72.43
-120.26
-156.05
-180.03
-193.37
-197.46
-193.94
-185.02
-173.52
-162.41
-153.60
-146.84
-139.22
-125.71
-100.58
-59.89
-3.83
61.92
126.60
176.95
200.91
191.66
150.41
86.78
16.43
-43.75
-81.31
-92.57
-83.33
-65.76
-52.29
-49.68
-56.02
-62.25
-57.34
-34.18
6.88
58.72
111.32
156.41
189.80
211.08
221.49
222.50
215.89
204.98
195.21
192.99
203.02
225.56
255.36
283.22
299.24
296.27
271.83
228.08
170.42
105.82
41.58
-15.37
-59.33
-86.94
-98.15
-96.42
-87.59
-77.84
-71.39
-69.32
-69.98
-70.52
-68.84
-64.67
-59.32
-54.56
-51.22
-48.60
-45.00
-38.97
-30.34
-20.69
-12.63
-8.60
-9.79
-15.70
-24.46
-33.30
-39.11
-38.67
-29.07
-8.61
22.30
60.34
99.88
134.57
159.46
172.59
175.16
170.44
162.21
153.39
145.81
140.54
138.45
140.23
146.08
155.14
165.50
174.60
180.08
180.58
176.16
168.33
159.48
152.00
147.33
145.28
143.94
140.35
131.51
115.55
92.18
62.47
28.38
-8.20
-45.73
-83.25
-120.07
-155.79
-190.33
-224.14
-258.32
-294.68
-335.56
-383.05
-437.77
-497.44
-556.17
-605.27
-635.57
-640.61
-619.00
-574.89
-516.12
-451.11
-386.09
-324.09
-265.55
-210.06
-157.53
-108.34
-62.58
-19.14
24.49
71.35
123.46
180.49
239.25
294.14
338.93
368.52
380.52
375.72
357.47
330.36
298.56
264.52
228.59
189.77
147.08
101.14
54.73
12.36
-21.35
-43.22
-52.44
-50.34
-39.26
-21.46
1.18
26.52
51.43
71.59
82.50
81.24
68.03
46.69
23.76
6.48
0.61
8.71
29.47
58.24
88.71
114.95
132.98
141.40
141.06
133.99
122.40
108.03
91.93
74.45
55.34
33.86
9.12
-19.57
-52.16
-87.69
-124.22
-159.28
-190.17
-214.22
-229.12
-233.34
-226.82
-211.56
-191.51
-171.74
-156.94
-150.15
-152.10
-161.57
-176.30
-194.08
-213.38
-233.39
-253.67
-273.68
-292.50
-308.81
-320.94
-327.09
-325.57
-315.11
-295.20
-266.41
-230.31
-189.15
-145.28
-100.50
-55.77
-11.31
33.25
78.49
125.13
173.68
224.02
274.78
322.95
364.21
394.23
410.41
413.25
406.39
395.24
384.85
378.23
375.82
376.22
377.10
376.03
370.68
358.62
337.34
305.13
262.19
211.48
158.40
109.30
69.74
43.08
29.79
27.72
32.87
40.66
47.15
50.20
49.46
46.72
45.19
48.29
58.03
74.05
93.63
112.60
126.63
131.06
122.83
101.09
67.07
23.24
-27.15
-79.77
-128.58
-165.97
-186.59
-186.62
-164.66
-122.68
-66.99
-7.75
43.72
78.52
92.59
83.05
51.44
3.71
-51.41
-105.71
-154.35
-196.35
-233.04
-266.86
-306.27
-359.63
-431.76
-521.50
-622.54
-725.47
-819.76
-895.44
-913.19
-850.61
-714.94
-543.05
-377.83
-245.41
-150.85
-86.70
-42.35
-9.71
10.26
15.58
7.51
-7.55
-22.01
-28.98
-26.11
-14.61
2.29
17.14
24.80
24.21
18.86
14.08
13.94
19.75
31.12
47.66
61.57
68.61
67.91
61.89
54.32
48.13
44.29
42.40
41.42
39.12
34.58
28.04
20.93
15.01
11.41
10.15
10.57
11.73
12.25
11.76
10.24
8.16
6.13
4.58
3.57
2.95
2.48
1.87
1.26
0.70
0.22
-0.20
-0.55
-0.81
-0.87
-0.61
0.11
1.57
3.89
7.01
10.73
14.84
19.19
23.81
28.94
34.88
41.95
50.16
59.27
68.79
78.23
87.33
96.23
105.42
115.47
126.74
139.11
151.87
163.98
174.43
182.76
189.24
194.82
200.75
208.02
216.97
227.18
237.87
248.33
258.39
268.60
279.92
293.56
310.90
333.60
363.34
400.81
444.11
487.91
523.75
542.38
537.07
506.01
452.53
382.85
303.22
218.35
132.10
49.53
-21.72
-72.31
-94.38
-84.83
-46.52
12.95
84.27
158.89
229.68
290.29
334.55
357.05
354.92
329.50
286.46
233.87
179.64
129.04
84.13
44.35
7.78
-27.75
-63.97
-102.01
-142.12
-183.25
-223.35
-259.92
-290.88
-314.64
-330.40
-337.46
-336.44
-329.94
-322.62
-320.46
-328.54
-349.16
-379.54
-412.81
-438.74
-448.30
-436.25
-401.77
-347.84
-279.34
-202.84
-124.14
-49.41
17.25
72.14
113.34
142.65
165.32
188.82
218.70
257.83
302.82
347.07
380.17
392.66
380.67
347.30
301.79
254.43
215.58
171.67
113.50
36.51
-55.23
-149.82
-234.52
-292.47
-327.83
-348.77
-361.81
-366.27
-357.53
-332.88
-289.71
-228.96
-155.29
-77.83
-6.15
49.79
84.32
96.53
92.02
82.14
78.64
87.94
106.21
122.40
122.03
95.06
39.21
-39.16
-127.90
-214.23
-288.11
-344.10
-379.09
-392.31
-384.45
-358.68
-320.00
-274.21
-226.80
-181.66
-140.80
-103.62
-67.29
-27.12
22.25
85.00
161.61
247.07
331.31
401.84
448.07
465.05
455.03
426.08
388.58
350.80
316.51
285.31
254.65
222.47
188.56
154.35
121.63
91.45
63.19
35.36
6.93
-22.06
-50.23
-75.66
-96.65
-113.75
-126.73
-135.19
-138.89
-137.92
-132.86
-124.21
-112.48
-98.11
-81.81
-64.97
-49.53
-37.73
-29.37
-23.07
-16.99
-9.82
-0.95
9.25
19.15
26.16
28.52
26.05
19.41
11.06
1.99
-7.86
-19.81
-36.21
-60.15
-93.22
-134.59
-182.09
-233.60
-287.93
-344.60
-390.37
-413.20
-408.82
-381.97
-342.48
-299.26
-256.78
-215.14
-171.69
-133.18
-98.52
-69.25
-47.77
-35.14
-30.23
-30.15
-31.50
-23.54
-2.88
28.98
65.22
98.70
124.93
142.41
151.42
152.82
148.80
139.82
126.90
109.84
88.38
62.64
32.89
-1.05
-39.84
-82.96
-131.71
-181.08
-226.18
-260.10
-275.22
-266.32
-233.72
-188.37
-136.07
-83.69
-35.75
5.80
42.39
77.14
112.83
150.80
184.12
208.69
222.05
225.50
221.65
213.18
201.55
186.95
168.37
145.68
120.92
96.12
74.16
56.67
43.58
33.37
23.65
11.18
-2.30
-17.35
-33.68
-48.74
-60.29
-67.65
-71.57
-73.65
-76.99
-82.24
-88.79
-95.50
-99.20
-96.98
-87.85
-72.39
-51.99
-29.48
-4.03
27.60
53.19
66.26
64.91
50.95
28.71
14.90
8.91
9.49
16.97
33.88
56.67
85.28
118.69
154.68
190.56
222.30
249.36
272.50
292.95
313.77
338.79
370.31
408.43
450.37
488.73
515.67
523.37
506.37
464.79
404.43
333.59
260.41
190.64
126.00
67.12
14.24
-31.87
-69.13
-94.99
-108.45
-110.69
-104.76
-94.99
-84.78
-76.17
-69.79
-65.19
-61.63
-59.21
-58.97
-62.31
-70.17
-81.98
-95.80
-109.19
-120.47
-129.34
-136.85
-144.43
-152.51
-159.76
-163.31
-159.96
-147.69
-126.74
-99.69
-70.66
-43.84
-22.30
-7.25
1.92
6.98
9.97
12.49
15.32
18.67
22.46
26.77
31.94
38.30
45.68
53.16
59.18
62.14
60.99
55.62
46.77
35.52
22.93
9.73
-3.64
-16.94
-30.19
-43.73
-58.15
-74.10
-91.93
-111.38
-131.55
-150.97
-168.03
-181.26
-189.58
-192.41
-189.70
-182.00
-170.39
-156.39
-141.73
-127.95
-116.02
-106.27
-98.53
-92.58
-88.32
-85.85
-85.07
-85.34
-85.45
-84.01
-80.26
-74.48
-67.99
-62.41
-58.80
-57.17
-56.62
-55.91
-54.26
-51.68
-48.86
-46.77
-46.14
-47.30
-50.12
-54.13
-58.52
-62.24
-64.00
-62.48
-56.61
-45.88
-30.64
-12.18
7.46
26.05
41.92
54.55
64.69
73.70
82.81
92.37
101.57
109.00
113.37
114.03
111.34
106.86
103.52
105.26
115.97
137.63
168.58
202.89
231.78
246.75
242.95
221.02
186.18
145.55
104.69
65.77
27.86
-11.29
-53.46
-99.31
-148.60
-200.61
-253.80
-305.05
-349.25
-380.38
-393.55
-387.13
-363.85
-329.83
-292.30
-257.18
-227.83
-205.12
-188.55
-177.15
-169.74
-164.74
-159.89
-152.60
-140.69
-123.18
-100.53
-74.28
-46.65
-19.79
4.35
24.19
38.65
47.22
50.10
48.05
42.19
33.85
24.50
15.90
10.19
9.64
16.18
30.77
52.89
80.58
110.89
140.63
167.26
189.19
205.86
217.27
223.63
225.02
221.53
213.60
202.56
190.58
180.29
173.66
171.13
170.96
169.75
163.62
149.85
127.84
99.30
67.34
35.29
5.61
-20.40
-42.36
-60.26
-74.30
-85.09
-93.81
-101.97
-110.68
-119.72
-127.34
-130.84
-128.01
-118.34
-103.38
-86.05
-69.32
-55.03
-43.74
-35.20
-29.30
-26.49
-27.50
-32.48
-40.38
-48.93
-55.45
-58.01
-56.21
-51.36
-45.75
-41.62
-40.25
-41.58
-44.52
-47.68
-50.17
-51.93
-53.66
-56.28
-60.38
-65.92
-72.37
-78.87
-84.36
-87.63
-87.27
-81.89
-70.71
-54.07
-33.67
-12.26
7.28
22.84
33.60
39.90
42.54
42.12
38.92
33.12
25.42
17.12
9.87
4.98
2.89
3.02
4.16
5.08
4.98
3.73
1.77
-0.15
-1.32
-1.27
-0.02
1.83
3.11
2.43
-1.44
-8.98
-19.51
-31.19
-41.37
-47.30
-46.99
-39.89
-27.14
-11.17
5.05
19.02
29.31
35.82
39.38
41.08
41.65
41.24
39.49
36.02
30.79
24.33
17.51
11.29
6.26
2.47
-0.42
-2.93
-5.35
-7.58
-9.27
-10.16
-10.33
-10.37
-11.12
-13.33
-17.45
-23.54
-31.51
-41.16
-52.15
-63.68
-74.18
-81.38
-82.82
-76.81
-63.18
-43.62
-21.33
-0.01
17.23
28.77
34.79
36.93
37.44
38.31
40.56
44.01
47.62
50.14
50.71
49.27
46.43
43.01
39.60
36.25
32.68
28.61
24.22
20.10
16.92
14.97
13.88
12.72
10.48
6.53
0.88
-6.00
-13.59
-21.66
-30.23
-39.15
-47.62
-54.07
-56.47
-53.13
-43.51
-28.73
-11.41
5.18
18.19
26.21
29.54
29.81
29.05
28.74
29.39
30.59
31.55
31.65
30.64
28.67
26.10
23.25
20.36
17.44
14.37
10.89
6.77
2.00
-3.06
-7.81
-11.70
-14.56
-16.67
-18.61
-21.07
-24.80
-30.65
-39.59
-52.38
-68.81
-87.10
-103.74
-114.41
-115.52
-105.71
-86.59
-62.17
-37.39
-16.45
-1.67
6.63
9.54
8.75
5.91
2.43
-0.47
-1.79
-0.91
2.33
7.68
14.76
23.35
33.30
44.29
55.44
65.43
72.88
77.10
78.38
77.61
75.61
72.40
67.38
59.89
50.08
39.08
28.50
19.54
12.36
6.35
0.94
-3.47
-5.33
-2.42
7.07
23.57
45.72
70.63
94.59
114.03
126.40
130.68
127.54
119.05
107.88
96.56
86.84
79.48
74.44
71.22
69.25
67.99
67.09
66.19
65.03
63.32
60.84
57.42
52.99
47.64
41.71
35.70
30.13
25.29
20.99
16.64
11.38
4.49
-4.31
-14.70
-25.80
-36.37
-44.95
-50.13
-50.67
-45.79
-35.43
-20.50
-2.74
15.59
32.33
46.00
56.10
62.95
67.31
69.82
70.76
70.19
68.35
65.86
63.59
62.29
62.13
62.41
61.82
59.00
53.24
44.86
35.14
25.85
18.57
14.35
13.46
15.55
19.60
24.03
26.80
25.80
19.50
7.69
-8.03
-24.43
-37.47
-43.56
-40.82
-29.61
-12.33
7.53
26.51
41.97
52.39
57.31
56.94
52.00
43.58
33.00
21.70
11.00
1.79
-5.63
-11.55
-16.62
-21.73
-27.83
-36.01
-47.41
-63.03
-83.09
-106.51
-130.67
-152.04
-167.39
-175.16
-176.20
-173.29
-169.93
-168.67
-170.14
-173.16
-175.61
-175.52
-171.63
-163.55
-151.47
-135.99
-118.06
-98.76
-79.10
-59.74
-40.86
-22.41
-4.62
11.88
26.02
36.89
44.16
48.30
50.36
51.45
52.38
53.54
55.06
56.89
58.82
60.36
60.75
59.28
55.64
50.09
43.29
35.93
28.38
20.43
11.45
0.61
-12.71
-28.47
-45.70
-62.28
-75.28
-81.69
-79.40
-68.16
-49.91
-28.46
-8.31
6.61
14.09
13.98
7.75
-2.41
-14.40
-26.71
-38.36
-48.52
-56.14
-60.00
-59.19
-53.90
-45.74
-37.55
-32.38
-32.19
-37.11
-45.47
-54.68
-62.42
-67.32
-68.99
-67.67
-63.81
-58.19
-52.14
-47.29
-44.80
-44.20
-42.64
-35.59
-18.84
9.16
45.90
85.32
120.03
144.14
155.11
153.83
143.14
125.91
103.89
77.79
48.33
17.27
-12.39
-37.21
-54.70
-64.45
-68.42
-70.05
-72.91
-79.33
-89.83
-103.21
-117.24
-129.47
-137.65
-140.04
-135.40
-123.15
-103.75
-78.83
-51.14
-23.75
1.01
22.37
41.18
59.14
77.57
96.56
114.78
130.39
142.09
149.96
155.29
159.69
164.02
167.93
170.30
170.16
167.33
162.34
155.79
147.76
137.86
125.90
112.62
99.62
88.68
80.71
75.16
70.42
64.77
57.33
48.31
38.46
28.25
17.34
4.82
-9.82
-25.73
-40.32
-49.80
-50.49
-40.16
-18.92
10.81
44.93
78.74
107.84
128.81
139.81
141.12
135.66
128.83
127.34
136.98
160.01
193.53
230.02
260.07
276.13
275.42
260.69
238.46
215.80
197.50
184.86
176.24
168.87
160.60
150.63
139.30
127.34
115.35
103.93
94.05
87.36
85.65
89.81
98.71
109.00
115.86
114.64
102.46
78.95
45.89
6.07
-37.66
-82.74
-126.51
-165.84
-197.38
-218.48
-228.44
-229.18
-224.61
-219.21
-216.19
-216.50
-218.93
-221.25
-221.54
-219.19
-215.03
-210.88
-208.74
-210.17
-215.76
-224.88
-235.51
-244.56
-248.49
-244.32
-230.65
-208.16
-179.47
-148.19
-117.91
-91.25
-69.61
-53.37
-42.42
-36.41
-34.86
-37.02
-41.66
-47.30
-52.47
-56.18
-58.13
-58.56
-57.80
-55.86
-52.34
-46.69
-38.66
-28.68
-17.83
-7.64
0.43
5.33
6.62
4.47
-0.23
-5.93
-10.47
-11.47
-6.98
3.68
19.44
37.63
54.79
67.87
75.31
77.33
75.55
71.99
68.14
64.45
60.58
55.94
50.32
44.15
38.26
33.48
30.19
28.19
26.90
25.69
24.18
22.33
20.35
18.52
16.96
15.50
13.68
10.88
6.49
0.08
-8.38
-18.45
-29.17
-39.14
-46.64
-49.94
-47.86
-40.18
-27.94
-13.22
1.48
13.95
22.90
28.14
30.31
30.35
29.06
26.86
23.86
20.04
15.53
10.64
5.85
1.68
-1.43
-3.24
-3.82
-3.47
-2.70
-2.07
-2.02
-2.82
-4.48
-6.95
-10.17
-14.18
-19.02
-24.66
-30.81
-37.04
-42.99
-48.65
-54.44
-60.89
-68.00
-74.79
-79.23
-78.87
-71.87
-57.99
-38.82
-17.30
3.27
20.38
32.79
40.54
44.33
44.95
42.95
38.73
32.92
26.59
21.11
17.70
16.93
18.33
20.65
22.39
22.48
20.63
17.32
13.33
9.29
5.44
1.67
-2.15
-6.01
-9.69
-12.92
-15.45
-17.25
-18.58
-20.08
-22.73
-27.69
-35.87
-47.33
-60.91
-74.21
-84.15
-88.05
-84.48
-73.89
-58.35
-40.87
-24.42
-11.21
-2.32
2.21
3.21
2.01
0.06
-1.34
-1.38
0.07
2.59
5.37
7.70
9.30
10.59
12.70
17.28
25.98
39.84
58.58
80.21
101.11
116.88
123.65
119.26
104.09
80.85
53.61
26.49
2.62
-16.39
-30.23
-39.27
-44.00
-44.56
-40.88
-33.01
-21.55
-7.85
6.06
17.95
25.87
28.65
26.18
19.41
10.15
0.66
-6.84
-10.66
-10.16
-5.86
0.67
7.37
12.42
14.75
14.25
11.57
7.66
3.46
-0.39
-3.45
-5.46
-6.24
-5.82
-4.61
-3.35
-2.85
-3.38
-4.48
-5.01
-3.74
-0.08
5.48
11.59
16.79
20.35
22.74
25.27
29.27
35.34
42.99
51.07
58.47
64.74
70.12
75.26
80.52
85.55
89.26
90.07
86.60
78.24
65.62
50.46
35.21
22.13
12.57
6.48
2.49
-1.45
-7.23
-15.74
-26.47
-37.61
-46.69
-51.55
-51.28
-46.82
-40.81
-36.77
-38.00
-46.64
-63.45
-87.80
-118.05
-151.57
-184.76
-213.02
-231.83
-238.07
-231.46
-214.76
-192.27
-167.15
-139.21
-104.85
-59.66
-2.44
61.75
121.92
164.70
179.67
163.35
120.00
59.31
-7.50
-71.02
-125.18
-166.86
-195.13
-210.26
-213.27
-205.53
-188.10
-161.10
-123.22
-72.59
-8.63
65.75
143.28
212.84
261.91
280.21
263.41
215.47
148.68
81.23
32.40
17.25
42.10
102.37
183.98
267.45
333.41
367.62
364.11
325.77
262.97
190.80
125.94
83.58
74.01
99.90
155.06
225.70
294.25
344.52
366.33
357.10
321.40
267.71
204.91
139.94
77.04
18.48
-34.65
-81.95
-124.14
-162.61
-199.14
-235.42
-272.26
-308.64
-340.69
-361.43
-362.19
-336.79
-284.11
-210.15
-127.92
-54.29
-4.31
14.63
5.45
-20.41
-51.24
-77.36
-93.29
-98.03
-94.09
-85.16
-73.53
-59.42
-42.10
-27.36
-20.62
-23.04
-30.83
-38.62
-42.47
-40.81
-34.32
-25.64
-27.81
-50.99
-96.30
-155.72
-218.61
-276.62
-324.46
-359.62
-382.16
-406.90
-447.27
-507.44
-581.95
-663.40
-747.92
-834.98
-924.83
-939.89
-835.26
-624.14
-366.85
-120.33
86.79
246.94
362.10
439.01
487.53
506.66
497.38
467.04
428.06
390.88
360.55
338.63
325.58
321.37
315.73
299.96
272.38
238.41
204.99
176.58
155.20
141.56
135.48
130.17
119.88
103.45
84.33
66.93
54.12
46.89
45.50
49.37
54.33
56.59
54.54
48.98
41.40
33.04
24.50
16.14
8.14
-0.45
-10.35
-21.48
-32.94
-43.79
-53.09
-60.53
-66.24
-70.73
-74.73
-79.08
-84.64
-92.16
-102.21
-114.64
-129.35
-146.11
-164.56
-184.14
-204.04
-223.17
-240.00
-256.22
-271.35
-284.48
-294.50
-300.28
-300.85
-295.47
-283.81
-265.97
-242.55
-214.04
-181.42
-145.96
-109.01
-71.82
-35.59
-1.32
30.10
57.88
81.83
101.78
117.80
130.20
139.56
146.58
151.95
156.17
159.44
161.96
163.72
164.68
165.04
165.18
165.61
166.75
168.67
171.01
173.19
174.55
174.65
173.57
171.95
170.69
170.62
172.08
174.74
177.87
180.66
182.57
183.70
184.76
186.77
191.03
198.82
211.27
228.72
250.12
272.56
291.65
302.71
302.62
291.06
270.79
246.46
222.67
202.32
185.95
172.43
160.19
148.32
136.83
126.25
116.89
108.53
100.48
92.09
83.13
73.86
64.87
56.70
49.47
42.83
36.06
28.44
19.56
9.48
-1.27
-11.95
-21.85
-30.48
-37.66
-43.44
-47.96
-51.37
-53.76
-55.17
-55.65
-55.26
-54.09
-52.30
-50.04
-47.57
-45.14
-43.03
-41.51
-40.75
-40.78
-41.50
-42.72
-44.17
-45.67
-47.10
-48.38
-49.43
-50.08
-50.18
-49.68
-48.72
-47.58
-46.57
-45.88
-45.38
-44.69
-43.36
-41.06
-37.76
-33.73
-29.44
-25.32
-21.68
-18.62
-16.17
-14.34
-13.16
-12.66
-12.78
-13.37
-14.15
-14.90
-15.44
-15.78
-15.99
-16.22
-16.58
-17.16
-18.00
-19.11
-20.46
-21.96
-23.52
-25.03
-26.45
-27.78
-29.06
-30.25
-31.17
-31.54
-30.98
-29.25
-26.29
-22.30
-17.65
-12.86
-8.47
-4.96
-2.71
-1.89
-2.47
-4.19
-6.61
-9.29
-11.89
-14.26
-16.47
-18.64
-20.81
-22.88
-24.66
-25.96
-26.70
-26.96
-26.91
-26.71
-26.50
-26.34
-26.25
-26.24
-26.26
-26.18
-25.72
-24.58
-22.53
-19.64
-16.35
-13.35
-11.25
-10.32
-10.22
-10.22
-9.46
-7.40
-4.12
-0.20
3.55
6.51
8.57
10.09
11.64
13.59
15.94
18.24
19.96
20.76
20.69
20.18
19.87
20.33
22.00
25.23
30.26
37.22
45.96
55.98
66.47
76.54
85.57
93.42
100.44
107.29
114.65
123.08
132.99
144.59
157.89
172.57
187.73
201.87
212.94
218.67
217.20
207.60
190.31
167.10
140.77
114.44
90.79
71.40
56.42
44.60
33.71
21.28
5.50
-14.10
-36.38
-58.97
-79.20
-95.13
-106.12
-112.70
-115.81
-116.12
-113.76
-108.64
-101.05
-91.97
-82.83
-74.87
-68.58
-63.48
-58.57
-52.95
-46.27
-38.80
-31.18
-23.95
-17.49
-11.97
-7.63
-5.09
-5.23
-8.98
-16.77
-28.18
-41.71
-55.12
-66.10
-73.15
-76.06
-76.02
-74.95
-74.61
-75.79
-78.02
-79.89
-79.69
-76.22
-69.28
-59.68
-48.81
-38.02
-28.12
-19.28
-11.29
-3.91
2.79
8.44
12.68
15.42
16.97
17.94
19.00
20.73
23.55
27.80
33.60
40.64
47.84
53.37
55.07
51.20
41.17
25.78
6.61
-14.30
-35.26
-54.82
-71.39
-82.97
-87.32
-82.69
-68.79
-47.19
-21.26
4.32
24.51
34.66
31.07
11.51
-24.30
-73.91
-131.90
-190.35
-240.39
-274.74
-290.06
-288.06
-274.43
-256.07
-237.48
-218.58
-195.24
-162.53
-118.68
-67.52
-17.92
20.45
41.55
45.74
39.08
29.83
24.43
25.18
30.32
36.41
40.86
43.18
44.60
46.67
49.87
53.11
54.10
50.31
39.96
22.68
-0.25
-26.21
-51.91
-74.09
-90.03
-97.95
-96.96
-87.04
-68.96
-44.31
-15.20
15.88
46.44
74.21
97.47
115.06
126.68
133.00
135.55
136.54
138.09
141.69
147.64
155.11
162.55
168.45
171.83
172.45
170.65
166.95
161.83
155.66
148.73
141.36
133.82
126.13
117.97
108.51
96.79
82.11
64.58
45.23
25.79
8.05
-6.85
-18.80
-28.57
-37.34
-46.05
-55.19
-64.93
-75.43
-87.02
-100.07
-114.52
-129.54
-143.65
-155.21
-163.08
-167.02
-167.61
-165.67
-161.79
-156.08
-148.51
-139.39
-129.67
-120.77
-113.96
-109.76
-107.61
-106.25
-104.43
-101.62
-98.08
-94.39
-90.58
-85.50
-76.84
-61.99
-39.24
-8.83
26.86
63.99
98.35
126.61
146.79
158.29
161.33
156.48
144.53
126.46
103.66
77.93
51.21
25.14
0.68
-21.97
-43.04
-62.60
-80.08
-94.13
-102.90
-104.84
-99.30
-87.01
-69.91
-50.63
-31.71
-15.15
-2.10
7.07
12.59
15.21
16.09
16.52
17.59
19.66
22.17
23.94
23.77
21.32
17.47
14.17
13.45
16.46
22.68
30.02
35.67
37.19
33.54
25.22
13.89
1.46
-10.60
-21.62
-31.59
-40.72
-49.01
-55.95
-60.60
-61.86
-58.99
-52.00
-41.82
-30.21
-19.22
-10.61
-5.33
-3.38
-4.00
-6.07
-8.51
-10.39
-10.90
-9.33
-5.22
1.22
8.85
15.72
19.75
19.50
15.06
8.08
1.26
-2.55
-1.22
6.20
19.47
37.28
57.26
76.07
89.62
93.92
86.41
67.10
39.19
8.42
-18.61
-36.53
-42.84
-38.53
-27.39
-14.42
-4.14
0.83
0.09
-4.80
-11.36
-17.14
-20.39
-20.31
-16.70
-9.88
-0.53
10.19
20.53
28.42
32.16
31.13
26.23
19.66
14.03
11.36
12.34
16.23
21.40
26.16
29.47
31.14
31.71
31.94
32.40
33.16
33.90
34.07
33.20
31.07
27.78
23.64
19.03
14.32
9.81
5.78
2.42
-0.30
-2.77
-5.74
-10.01
-15.99
-23.22
-30.31
-35.30
-36.42
-32.82
-25.02
-14.66
-3.92
5.32
12.07
16.35
18.93
20.86
22.99
25.69
28.80
31.79
33.96
34.73
33.80
31.21
27.32
22.68
17.96
13.94
11.44
11.26
13.90
19.31
26.60
34.15
39.97
42.41
40.69
35.19
27.23
18.37
9.91
2.45
-3.96
-9.43
-13.80
-16.43
-16.49
-13.29
-6.74
2.58
13.53
24.78
35.11
43.48
48.92
50.43
47.18
38.88
26.27
11.26
-3.43
-15.16
-22.23
-24.42
-22.93
-19.64
-16.32
-14.00
-13.00
-13.21
-14.48
-16.75
-19.95
-23.76
-27.58
-30.73
-32.74
-33.66
-33.99
-34.53
-36.06
-38.99
-43.28
-48.42
-53.65
-58.21
-61.59
-63.65
-64.61
-64.86
-64.55
-63.48
-60.95
-56.05
-48.10
-37.04
-23.70
-9.59
3.47
13.93
20.89
24.30
24.73
23.14
20.60
18.12
16.54
16.49
18.21
21.45
25.54
29.54
32.61
34.21
34.22
32.73
29.98
26.26
21.86
17.27
12.90
8.96
5.32
1.59
-2.61
-7.34
-12.23
-16.66
-20.17
-22.70
-24.57
-26.21
-27.77
-28.95
-29.17
-27.85
-24.82
-20.36
-15.06
-9.58
-4.43
0.12
3.96
7.16
10.00
13.05
17.16
23.14
31.34
41.23
51.33
59.62
64.21
64.16
59.76
52.48
44.29
36.94
31.40
27.71
25.24
23.05
20.26
16.15
10.30
2.50
-7.14
-18.04
-29.08
-38.61
-44.69
-45.54
-40.03
-28.19
-11.41
7.81
26.49
41.96
52.65
58.40
60.18
59.39
57.20
54.13
50.05
44.70
38.08
30.75
23.70
18.01
14.51
13.52
14.76
17.36
20.17
22.05
22.24
20.65
17.84
14.63
11.54
8.50
4.81
-0.45
-7.96
-17.79
-29.43
-42.06
-54.79
-66.81
-77.21
-84.90
-88.60
-87.15
-79.97
-67.49
-51.22
-33.48
-16.75
-2.94
7.06
13.40
16.90
18.33
17.98
15.58
10.75
3.60
-4.94
-13.32
-19.96
-23.94
-25.40
-25.27
-24.82
-25.03
-26.33
-28.74
-32.25
-37.15
-44.01
-53.36
-65.31
-79.13
-93.32
-105.85
-114.55
-117.58
-113.83
-103.28
-87.10
-67.63
-47.90
-30.92
-18.92
-12.76
-11.90
-14.80
-19.56
-24.24
-26.97
-25.85
-19.17
-6.04
12.88
34.86
55.46
69.73
73.80
66.16
48.10
23.12
-4.13
-29.12
-48.27
-59.42
-61.87
-56.28
-44.39
-28.64
-11.73
3.92
16.55
25.29
30.13
31.95
32.29
33.09
36.11
42.52
52.44
65.01
78.59
91.26
101.41
108.02
111.04
111.17
109.80
108.55
108.96
112.13
118.16
126.10
134.51
141.99
147.81
152.22
156.38
161.76
169.64
179.87
191.19
201.64
209.41
213.00
211.41
204.16
191.49
174.76
155.23
134.26
112.71
91.17
69.70
47.99
25.67
2.48
-20.90
-44.66
-69.05
-94.83
-121.86
-149.01
-174.57
-196.83
-215.02
-222.38
-213.32
-186.54
-148.13
-107.08
-70.50
-41.44
-19.74
-6.49
0.97
3.85
2.05
-6.57
-23.73
-50.80
-88.97
-134.95
-186.43
-240.57
-295.17
-337.24
-357.60
-353.25
-329.52
-295.97
-261.11
-230.37
-205.29
-185.55
-170.75
-161.34
-155.34
-148.74
-135.32
-109.59
-70.29
-23.58
27.54
79.49
128.49
172.84
210.76
239.75
255.41
252.02
226.52
182.40
129.66
80.61
53.00
56.62
93.56
158.64
241.26
326.74
399.32
445.50
456.95
433.33
381.01
311.98
240.04
177.16
131.79
108.50
107.44
123.37
148.21
172.30
187.26
187.66
171.98
142.75
105.72
67.23
29.49
-7.18
-43.15
-77.62
-109.18
-136.97
-161.21
-182.88
-203.38
-228.16
-260.41
-298.92
-338.15
-371.71
-395.92
-410.72
-418.69
-423.61
-435.18
-461.30
-504.81
-562.24
-626.45
-689.18
-742.18
-778.28
-757.77
-662.37
-505.43
-326.76
-166.09
-43.63
40.12
94.80
130.98
155.79
166.99
162.07
142.96
117.42
94.29
78.85
72.81
74.52
80.75
84.11
79.43
66.14
48.73
32.76
21.93
17.46
18.79
24.74
31.72
37.70
39.74
39.24
38.99
41.42
48.13
59.96
77.11
97.87
120.18
142.67
165.59
189.86
216.52
246.60
281.11
321.16
367.64
421.21
481.57
546.52
610.43
664.77
700.50
711.44
696.75
661.30
613.42
561.49
511.29
464.77
421.23
379.49
339.41
302.07
268.63
238.96
211.15
182.32
149.88
112.79
72.06
30.47
-8.88
-43.82
-74.06
-101.29
-128.28
-157.89
-191.77
-230.04
-271.45
-314.02
-355.62
-394.15
-427.86
-455.66
-477.79
-496.08
-513.31
-531.43
-549.46
-562.23
-560.91
-536.10
-481.89
-399.57
-298.62
-194.64
-104.59
-41.65
-11.39
-10.52
-28.55
-50.85
-62.44
-51.46
-11.89
54.95
140.41
230.36
309.00
363.15
385.81
377.27
343.68
293.53
234.18
170.23
103.72
35.59
-33.27
-101.51
-167.56
-229.80
-285.97
-332.72
-365.46
-379.33
-370.73
-338.68
-284.79
-212.62
-126.48
-31.40
65.98
156.51
228.94
272.62
281.72
258.88
215.68
169.18
135.66
124.25
133.98
154.81
172.77
175.86
158.39
122.11
74.63
26.36
-12.69
-35.43
-39.38
-27.04
-4.47
21.47
46.24
69.22
92.89
119.73
149.22
176.69
195.57
201.21
193.97
179.50
165.70
158.50
159.07
164.09
168.52
169.11
166.29
163.46
164.69
172.15
184.92
199.52
211.69
218.37
218.87
214.89
209.29
204.66
202.08
200.77
198.69
193.58
184.11
170.48
154.27
137.80
123.23
111.85
103.94
98.90
95.79
93.84
92.57
91.89
91.76
92.03
92.22
91.64
89.57
85.48
79.17
70.74
60.50
48.75
35.69
21.44
6.08
-10.21
-27.08
-44.04
-60.54
-76.17
-90.77
-104.43
-117.42
-129.92
-141.95
-153.27
-163.38
-171.85
-178.50
-183.59
-187.85
-192.14
-197.15
-203.11
-209.60
-215.88
-221.22
-225.45
-229.23
-233.94
-241.16
-252.15
-267.27
-285.90
-306.84
-328.78
-350.88
-373.04
-395.79
-420.10
-447.34
-479.20
-517.16
-561.34
-609.17
-654.66
-689.21
-703.99
-693.14
-656.02
-597.49
-525.79
-449.42
-374.46
-303.58
-236.87
-173.30
-111.75
-51.15
10.03
73.69
141.25
212.07
282.39
345.47
393.40
419.63
421.39
400.78
363.96
318.95
272.96
230.35
192.07
156.37
120.64
83.10
43.73
3.95
-34.21
-69.42
-101.81
-132.79
-164.58
-199.60
-240.13
-287.78
-342.75
-402.82
-462.72
-514.76
-550.86
-565.43
-557.53
-531.21
-493.72
-452.55
-412.96
-377.18
-345.35
-317.10
-292.84
-273.24
-258.66
-247.94
-238.53
-227.57
-213.01
-194.21
-171.85
-147.82
-124.75
-105.58
-93.02
-88.42
-90.80
-96.57
-100.59
-98.14
-86.77
-67.17
-42.37
-15.85
10.18
35.35
60.45
86.00
111.23
134.10
152.38
164.71
171.26
173.37
172.67
170.55
167.34
162.67
155.95
146.88
135.89
124.05
112.79
103.34
96.33
91.71
88.84
86.95
85.43
84.03
82.85
82.12
81.98
82.37
83.04
83.72
84.24
84.60
84.88
85.11
85.26
85.13
84.60
83.74
82.91
82.68
83.63
86.09
89.89
94.50
99.31
103.98
108.86
114.91
123.33
134.97
149.80
166.94
185.10
203.43
221.91
241.10
261.32
281.88
301.02
316.64
327.37
332.89
333.51
329.04
318.34
299.96
273.84
242.94
213.05
190.96
181.26
184.08
194.97
207.04
214.18
213.20
204.17
188.91
169.36
146.71
121.63
95.12
69.03
45.78
27.68
16.29
12.01
14.00
20.26
27.82
33.37
34.40
30.38
23.07
15.92
12.18
13.42
18.90
26.40
34.09
41.65
50.13
60.51
72.16
82.14
86.36
81.63
67.68
47.84
27.97
14.00
9.60
14.57
24.97
34.80
38.50
33.11
19.48
1.53
-15.63
-27.89
-33.40
-32.49
-26.55
-16.88
-4.39
9.84
23.52
32.90
33.74
23.05
0.99
-28.50
-58.62
-81.79
-91.73
-84.84
-60.56
-21.17
28.08
79.18
122.00
146.32
145.36
119.46
77.72
36.26
12.58
18.30
53.67
106.82
158.11
187.89
183.85
144.76
79.79
4.19
-66.06
-118.43
-145.96
-147.74
-128.06
-94.97
-58.28
-27.34
-8.67
-4.56
-13.05
-29.43
-48.50
-66.67
-83.03
-99.13
-117.51
-139.98
-166.03
-192.35
-213.81
-225.07
-222.77
-206.89
-180.71
-149.43
-118.16
-90.46
-68.03
-51.74
-42.49
-41.57
-49.57
-64.84
-82.51
-95.12
-94.68
-75.23
-34.97
22.99
91.11
158.64
213.57
244.86
245.07
212.96
154.88
84.04
17.47
-28.29
-41.62
-18.73
35.48
108.63
183.49
241.68
268.04
254.84
204.59
130.05
50.62
-13.68
-48.22
-47.95
-17.83
29.78
79.56
117.41
133.71
125.26
95.94
55.84
18.27
-4.86
-7.80
6.41
27.40
42.78
44.50
32.75
14.76
-0.37
-7.73
-9.79
-14.96
-32.77
-68.55
-120.75
-181.66
-240.53
-286.91
-312.49
-312.03
-284.32
-233.60
-169.97
-108.03
-62.43
-42.12
-46.26
-64.25
-79.66
-76.90
-47.00
9.58
83.82
161.23
225.58
263.26
266.42
235.72
181.25
120.54
73.47
55.22
70.49
111.35
161.18
201.05
216.21
200.03
154.36
87.51
11.79
-58.28
-109.32
-130.72
-117.69
-73.44
-8.89
60.27
118.21
152.96
159.89
138.43
94.19
36.35
-23.75
-74.90
-108.63
-121.89
-117.97
-102.25
-85.08
-70.64
-57.70
-41.33
-17.29
13.86
45.52
67.28
72.89
53.58
10.75
-48.64
-114.62
-176.95
-227.06
-259.01
-270.15
-256.16
-224.69
-179.98
-126.35
-66.62
-1.62
68.86
144.03
190.50
235.21
261.97
260.95
227.88
167.13
91.47
18.38
-35.69
-60.80
-51.56
-20.33
20.85
60.31
90.42
108.84
117.22
118.54
114.62
108.59
94.62
70.68
37.06
-2.72
-42.41
-75.24
-96.43
-105.30
-102.88
-96.86
-91.92
-89.97
-89.67
-87.67
-80.92
-68.66
-53.10
-37.40
-27.18
-25.28
-31.81
-44.31
-58.67
-70.62
-76.90
-76.10
-68.55
-57.17
-45.57
-37.30
-34.83
-38.94
-48.69
-61.90
-75.87
-88.06
-96.31
-99.24
-96.52
-88.95
-78.32
-66.67
-55.09
-43.37
-30.35
-15.45
-0.13
12.17
17.75
15.59
9.20
5.93
13.45
35.20
67.64
100.91
123.26
126.40
109.15
77.65
42.24
13.24
-2.54
-3.13
8.82
27.42
45.01
53.81
47.86
24.73
-13.27
-59.50
-104.94
-141.25
-163.62
-172.41
-172.68
-172.03
-177.42
-192.25
-214.92
-239.25
-256.73
-259.53
-243.29
-208.57
-160.47
-107.19
-57.45
-18.19
7.28
20.16
25.78
32.13
46.91
74.46
113.35
156.05
191.13
206.97
195.59
155.11
90.17
10.34
-72.44
-146.67
-203.38
-237.31
-247.13
-234.86
-204.95
-162.92
-114.41
-64.48
-17.19
24.62
59.66
88.64
114.30
140.49
170.61
205.77
243.82
279.57
306.52
319.27
315.86
298.89
274.93
252.32
238.10
235.33
241.77
250.74
253.61
243.27
216.70
175.80
126.18
74.58
26.61
-14.35
-46.84
-70.14
-83.88
-88.30
-85.35
-79.18
-75.51
-79.47
-93.27
-114.74
-137.84
-155.00
-160.15
-151.14
-130.17
-102.50
-74.06
-49.44
-31.02
-19.22
-13.47
-12.95
-16.69
-23.13
-29.81
-33.62
-31.73
-22.81
-7.77
10.33
27.32
39.31
44.10
42.06
35.99
30.25
29.11
34.96
47.09
61.77
73.54
77.49
71.21
55.74
34.97
14.05
-2.19
-10.24
-7.90
6.00
31.67
67.70
110.30
153.02
187.79
207.15
206.62
186.38
151.37
109.95
71.45
43.74
31.20
34.10
48.89
69.23
87.81
98.19
96.37
81.51
55.55
22.21
-14.37
-50.41
-84.41
-117.62
-153.09
-193.51
-238.70
-284.24
-322.19
-343.84
-342.14
-316.10
-271.24
-216.92
-161.91
-110.96
-64.01
-17.92
31.13
87.49
152.05
221.89
290.73
351.02
395.71
420.18
423.05
406.75
378.90
346.33
313.13
280.26
247.61
216.03
188.11
166.61
139.23
100.07
49.12
-7.36
-62.14
-110.68
-150.61
-180.13
-198.43
-207.64
-208.78
-206.47
-207.28
-217.85
-242.48
-282.80
-334.97
-395.04
-458.39
-507.91
-527.39
-506.78
-448.42
-365.85
-277.27
-198.19
-138.11
-98.87
-75.30
-61.87
-54.03
-49.71
-47.95
-47.60
-46.54
-43.19
-36.72
-26.99
-16.27
-6.11
2.65
10.69
19.45
30.59
44.29
59.83
76.25
92.19
108.74
128.55
155.62
190.25
233.49
285.56
345.45
409.97
461.90
483.68
463.07
400.18
308.28
208.06
118.38
50.55
6.65
-18.30
-30.29
-33.87
-31.28
-23.46
-11.43
2.24
14.24
21.79
23.84
22.56
21.67
24.24
31.43
42.32
54.33
64.64
71.38
74.18
74.94
76.56
80.94
88.70
98.98
109.78
118.78
124.06
124.25
118.64
111.23
103.92
97.66
92.49
87.84
83.07
77.83
72.20
66.86
62.76
60.08
58.84
58.76
59.35
60.10
60.62
60.73
60.42
59.96
59.08
57.73
55.88
53.53
50.62
47.16
43.12
38.54
33.52
27.92
21.75
15.10
8.15
1.07
-5.98
-12.86
-19.48
-25.66
-31.40
-36.61
-41.15
-44.93
-47.96
-50.31
-52.19
-53.83
-55.33
-56.77
-58.05
-58.93
-59.29
-59.12
-58.64
-58.28
-58.48
-59.52
-61.39
-63.75
-66.06
-67.86
-69.02
-69.86
-71.10
-73.61
-78.00
-84.42
-92.52
-101.59
-110.97
-120.34
-129.77
-139.72
-150.78
-163.52
-178.39
-195.54
-214.48
-233.71
-250.68
-262.10
-265.06
-258.16
-242.29
-220.55
-197.29
-176.69
-161.60
-153.07
-150.34
-151.45
-153.79
-154.80
-152.61
-146.46
-137.00
-126.11
-116.54
-111.35
-113.40
-124.62
-145.06
-172.01
-199.63
-219.77
-224.35
-208.47
-172.89
-124.46
-74.00
-32.65
-8.12
-2.84
-14.11
-36.04
-61.86
-85.78
-103.84
-114.10
-116.61
-113.31
-107.62
-103.77
-105.27
-113.48
-126.77
-140.99
-151.17
-153.77
-148.38
-137.86
-127.18
-121.23
-123.04
-133.08
-149.74
-170.49
-192.70
-213.87
-231.28
-242.04
-243.51
-234.42
-215.54
-189.81
-161.44
-134.42
-111.23
-92.38
-76.83
-62.99
-49.68
-36.78
-24.99
-15.49
-9.35
-7.15
-8.95
-14.44
-23.10
-34.41
-47.95
-63.28
-79.92
-97.20
-114.22
-129.99
-143.50
-153.94
-160.68
-163.37
-161.91
-156.33
-146.79
-133.57
-117.09
-97.91
-76.86
-54.91
-33.12
-12.54
5.87
21.41
33.69
42.60
48.36
51.37
52.18
51.33
49.36
46.74
43.87
41.18
39.10
38.09
38.49
40.40
43.71
48.05
52.94
58.01
63.18
68.72
75.20
83.28
93.50
106.02
120.66
137.03
154.57
172.84
191.53
210.47
229.74
249.75
271.27
295.03
320.92
347.41
371.39
388.89
396.47
392.87
379.76
361.53
343.71
330.96
325.67
327.57
334.32
342.85
350.71
356.98
362.51
369.24
379.52
395.66
419.78
453.05
494.75
541.47
586.75
622.44
640.77
637.01
611.47
570.13
521.57
473.62
430.76
393.47
360.45
329.82
300.23
271.24
244.24
219.70
196.66
173.09
146.71
117.93
88.43
60.17
34.70
15.01
2.28
-4.63
-8.61
-13.66
-20.44
-28.22
-36.08
-42.94
-45.05
-40.10
-28.31
-12.19
3.69
18.44
32.30
45.74
40.32
8.96
-41.67
-94.65
-124.88
-135.44
-134.61
-130.54
-131.44
-141.03
-157.32
-177.38
-199.32
-223.17
-251.55
-284.23
-320.69
-361.16
-406.25
-454.29
-503.47
-551.10
-592.28
-620.16
-624.36
-597.51
-540.40
-463.23
-381.68
-312.95
-270.15
-258.56
-275.96
-313.29
-360.01
-407.30
-448.38
-476.99
-488.41
-480.75
-456.30
-421.37
-383.32
-348.50
-320.02
-297.00
-274.57
-247.79
-214.20
-174.99
-133.79
-94.15
-58.41
-27.49
-1.13
23.53
48.81
75.20
101.04
124.18
143.56
159.58
173.24
185.52
200.29
220.04
244.25
269.24
290.73
306.42
316.56
322.70
327.21
337.85
361.85
402.39
456.57
516.55
572.79
616.43
640.55
618.30
539.03
414.95
277.07
154.97
61.47
-5.81
-55.55
-94.52
-131.17
-165.70
-196.51
-223.36
-247.64
-270.42
-290.34
-297.58
-286.24
-258.65
-220.68
-180.06
-143.47
-111.96
-85.51
-62.91
-41.38
-18.84
7.75
44.81
97.60
166.34
243.89
316.79
369.77
391.66
378.66
336.11
277.27
216.83
165.18
125.49
94.45
64.90
31.27
-8.72
-54.07
-101.96
-149.37
-192.58
-226.07
-242.68
-237.91
-210.34
-163.87
-107.94
-55.93
-20.85
-10.36
-24.73
-58.73
-108.75
-171.96
-245.36
-323.78
-399.77
-464.26
-508.37
-526.81
-501.07
-429.78
-331.74
-236.20
-164.10
-119.72
-95.63
-81.64
-71.16
-62.35
-59.31
-65.07
-79.03
-95.34
-108.13
-114.32
-113.72
-108.58
-101.94
-98.76
-101.82
-110.11
-119.42
-125.09
-126.72
-125.00
-121.61
-118.26
-117.55
-120.57
-126.16
-131.48
-133.99
-132.49
-126.80
-117.61
-105.82
-92.88
-79.64
-66.01
-51.21
-34.75
-16.82
2.15
21.43
40.39
58.32
74.84
89.89
103.60
115.91
126.43
134.70
140.23
142.70
142.03
138.48
132.53
124.82
115.92
106.26
96.24
86.12
76.19
66.91
58.81
52.52
48.51
46.89
47.36
49.31
52.03
54.98
58.13
61.89
66.95
73.95
83.04
93.85
105.54
117.32
128.73
139.96
151.74
164.96
180.32
198.20
218.76
241.95
267.24
293.34
317.85
337.73
350.27
354.19
350.29
340.95
328.84
315.61
301.40
285.42
267.09
246.92
226.42
207.32
190.44
175.31
160.53
144.83
128.00
111.05
95.81
84.04
76.48
72.51
70.18
66.84
60.01
48.22
31.60
11.92
-8.06
-25.44
-38.19
-45.83
-49.32
-50.65
-51.89
-54.25
-57.39
-59.41
-57.32
-48.20
-30.41
-4.41
27.28
60.89
92.56
119.22
138.67
149.13
148.85
136.22
110.69
73.89
30.14
-14.10
-51.91
-77.76
-88.93
-85.66
-70.35
-46.35
-16.97
14.77
46.01
73.74
94.67
105.69
104.46
90.00
63.16
26.37
-16.71
-62.03
-105.96
-146.01
-181.10
-211.43
-237.78
-260.70
-279.76
-293.43
-299.61
-296.47
-283.18
-260.34
-229.81
-194.40
-157.41
-122.29
-92.39
-70.53
-58.48
-56.36
-62.31
-72.73
-83.10
-89.12
-87.95
-78.95
-63.79
-45.90
-29.36
-17.75
-13.15
-15.67
-23.71
-34.86
-46.85
-58.40
-69.36
-80.36
-92.01
-104.15
-115.41
-123.26
-124.68
-117.11
-99.58
-73.55
-43.10
-14.15
7.24
17.16
15.54
6.58
-2.51
-4.16
6.72
30.91
64.77
101.64
134.27
157.00
167.13
165.34
154.98
140.79
127.40
117.96
113.46
112.72
113.21
112.15
107.36
97.75
83.18
64.29
42.23
18.50
-5.06
-26.51
-44.23
-57.42
-66.31
-72.09
-76.31
-80.01
-83.20
-84.72
-82.87
-76.37
-65.15
-50.60
-35.09
-21.03
-10.10
-2.85
1.18
2.97
3.63
4.24
5.67
8.47
12.62
17.34
21.25
22.89
21.59
18.01
14.13
12.47
14.89
21.63
31.06
40.30
46.45
47.67
43.70
35.61
25.02
13.36
1.63
-9.47
-19.11
-26.19
-29.73
-29.41
-25.94
-20.82
-15.53
-10.63
-5.41
1.76
12.29
26.24
41.92
56.40
66.73
71.12
69.47
63.10
53.86
43.48
33.29
24.43
18.14
15.51
16.97
21.66
27.32
31.10
30.86
26.25
19.05
12.23
8.50
8.96
12.62
16.93
19.07
17.09
10.52
0.30
-11.98
-24.70
-36.54
-46.44
-53.49
-56.89
-56.34
-52.31
-46.10
-39.35
-33.30
-28.18
-23.18
-17.08
-9.07
0.57
10.46
18.79
24.10
26.00
25.24
23.34
21.92
22.10
24.11
27.21
29.91
30.44
27.49
20.78
11.38
1.60
-5.79
-8.57
-5.98
0.99
9.86
17.72
22.28
22.59
19.14
13.27
6.52
-0.06
-6.04
-11.54
-16.85
-22.37
-28.49
-35.61
-43.98
-53.44
-63.15
-71.42
-75.94
-74.45
-65.54
-49.47
-28.55
-6.68
11.84
23.78
28.26
26.84
22.74
19.26
18.43
20.48
24.19
27.96
30.55
31.36
30.17
26.80
21.18
13.68
5.49
-1.44
-4.90
-3.34
3.50
14.28
26.45
36.89
42.68
41.85
33.91
20.06
2.97
-14.08
-28.26
-38.30
-44.82
-49.79
-55.45
-63.09
-72.49
-82.13
-89.96
-94.19
-93.79
-88.51
-78.74
-65.61
-51.07
-37.66
-27.53
-21.14
-16.34
-8.70
6.54
32.02
66.23
103.62
136.52
158.22
165.43
159.08
143.24
122.89
101.99
82.56
65.11
49.78
37.25
28.99
26.61
30.76
40.37
52.54
63.28
68.85
66.92
57.24
41.51
22.84
4.81
-9.33
-17.41
-18.92
-15.20
-9.29
-5.12
-6.28
-14.98
-31.51
-54.37
-80.84
-107.59
-131.16
-148.40
-157.00
-156.00
-146.16
-129.84
-110.20
-90.38
-72.68
-58.37
-47.77
-40.55
-35.85
-32.38
-28.62
-23.23
-15.54
-5.69
5.39
16.54
26.71
35.11
41.14
44.30
44.35
41.56
36.80
31.10
25.17
18.82
11.09
0.97
-11.81
-26.32
-40.77
-53.37
-63.25
-70.73
-76.93
-82.71
-87.81
-90.74
-89.39
-82.18
-69.10
-51.95
-33.80
-17.69
-5.58
2.29
7.09
10.65
14.73
20.57
28.86
39.71
52.62
66.29
78.91
88.72
95.00
98.53
101.41
105.90
113.17
122.60
132.13
139.16
141.47
137.65
126.95
109.23
85.12
56.43
26.29
-1.56
-23.97
-39.59
-49.27
-55.39
-60.57
-66.50
-73.47
-80.70
-86.97
-91.06
-91.92
-88.79
-81.39
-70.31
-57.16
-44.27
-33.83
-27.03
-23.44
-21.31
-18.52
-13.71
-6.99
0.16
5.78
8.51
8.32
6.50
4.90
4.97
7.03
10.30
13.50
15.59
16.34
16.33
16.58
18.11
21.61
27.27
34.72
43.05
50.75
55.90
56.76
52.45
43.59
32.29
21.38
13.21
8.61
6.64
5.30
2.82
-1.34
-6.10
-9.40
-9.20
-4.44
4.54
16.14
28.13
38.39
45.59
49.63
51.63
53.35
56.37
61.45
68.32
76.11
83.79
90.36
94.46
93.97
86.19
68.93
41.95
7.88
-28.24
-60.64
-84.90
-99.17
-104.09
-101.61
-93.87
-82.58
-69.21
-55.02
-40.85
-26.62
-11.09
7.31
29.17
53.04
75.61
93.25
104.17
109.58
113.27
119.88
132.76
152.59
177.28
203.01
225.59
241.69
249.38
248.25
239.05
223.20
202.17
177.03
148.49
117.36
85.20
54.50
28.05
7.42
-8.25
-22.61
-40.78
-67.09
-103.07
-147.11
-195.62
-245.21
-293.80
-340.14
-382.30
-417.24
-441.93
-455.71
-461.91
-466.51
-474.50
-485.70
-493.72
-489.39
-467.37
-431.52
-395.16
-375.04
-382.28
-415.77
-461.89
-501.15
-517.55
-505.26
-469.51
-421.88
-373.50
-330.25
-292.17
-256.29
-220.54
-185.86
-155.41
-132.16
-116.46
-105.69
-95.37
-81.75
-63.46
-42.01
-20.98
-3.97
6.99
12.34
15.07
19.87
31.35
51.73
78.92
106.28
124.70
126.45
109.25
78.21
44.06
18.83
10.70
20.98
44.73
74.48
104.12
130.91
154.55
174.63
189.12
194.83
189.77
175.40
156.79
140.56
131.89
132.44
140.24
151.57
163.40
174.72
186.51
200.37
217.23
236.69
257.33
277.51
296.23
313.56
330.68
349.89
373.61
403.42
438.85
476.66
511.04
535.13
542.98
531.20
499.78
451.27
389.45
317.89
239.78
158.75
79.98
10.33
-43.46
-77.71
-94.39
-101.68
-111.71
-136.17
-181.73
-247.17
-323.45
-397.05
-454.60
-487.37
-493.47
-477.37
-447.12
-410.69
-373.18
-335.89
-297.54
-256.43
-212.51
-168.24
-126.64
-89.62
-56.31
-23.33
13.62
57.75
109.82
168.21
229.01
287.84
340.29
382.34
410.66
423.26
420.21
404.17
380.42
354.19
330.40
311.44
296.67
282.60
264.41
237.74
200.53
155.58
105.86
57.53
16.15
-15.05
-35.55
-45.99
-46.25
-34.81
-6.97
33.38
80.74
125.18
155.78
164.96
151.60
120.86
80.60
41.51
-0.07
-46.93
-102.11
-164.43
-226.57
-276.60
-302.63
-298.25
-259.01
-200.31
-134.26
-70.89
-14.55
37.04
90.28
151.38
183.72
229.59
271.25
295.02
289.29
249.30
180.13
96.17
16.97
-39.53
-56.56
-39.67
3.72
62.42
125.91
186.68
239.79
280.93
305.24
312.44
294.50
252.06
189.97
115.78
37.01
-40.97
-115.11
-183.12
-238.82
-280.45
-303.14
-305.05
-289.84
-266.71
-247.32
-240.71
-248.88
-264.24
-276.91
-276.05
-256.89
-222.92
-183.74
-149.79
-126.89
-113.54
-101.56
-81.95
-48.29
-0.77
54.12
106.66
148.44
175.65
189.70
194.77
194.38
188.70
174.68
148.99
111.73
68.67
30.36
7.90
7.73
28.19
59.48
87.45
99.32
88.45
56.34
11.44
-34.60
-71.11
-91.63
-95.20
-85.82
-70.51
-56.70
-49.77
-51.42
-59.53
-69.78
-78.10
-82.88
-85.93
-91.27
-102.97
-123.19
-151.62
-186.42
-225.39
-266.38
-306.64
-341.73
-365.27
-370.39
-352.16
-309.66
-246.42
-168.96
-84.60
-0.12
78.39
144.83
193.01
217.91
217.93
196.62
162.45
126.41
98.34
83.92
83.69
94.01
109.49
125.18
137.67
144.81
144.89
136.16
117.21
88.15
51.62
13.06
-20.59
-43.40
-52.98
-52.00
-47.43
-47.80
-59.67
-84.75
-119.21
-155.21
-183.96
-198.90
-197.47
-181.35
-155.17
-124.55
-94.49
-68.23
-46.90
-29.89
-15.80
-3.55
6.82
14.07
16.80
14.88
10.41
7.56
11.05
23.85
45.51
71.76
95.98
111.81
115.59
107.74
92.24
74.87
60.74
52.33
48.76
46.30
40.15
26.50
4.27
-24.22
-53.88
-78.61
-93.40
-96.06
-87.96
-73.44
-58.24
-47.41
-43.51
-45.62
-49.51
-48.79
-36.73
-8.38
37.64
98.07
165.21
228.40
276.52
300.86
297.16
266.47
214.72
151.17
86.45
30.62
-8.83
-28.49
-29.61
-17.84
-1.69
9.80
9.46
-6.34
-37.12
-78.82
-125.40
-169.84
-205.47
-226.97
-231.33
-218.59
-192.21
-158.74
-126.18
-102.93
-94.60
-102.54
-123.32
-149.66
-172.89
-185.78
-184.94
-171.52
-152.10
-135.49
-130.00
-140.37
-165.86
-200.28
-234.18
-258.27
-265.99
-256.69
-233.08
-199.36
-158.61
-111.74
-58.34
1.08
58.71
111.39
150.08
168.41
165.71
148.22
127.38
115.39
120.30
142.67
176.28
209.65
232.52
239.47
231.44
214.52
196.73
184.85
182.19
188.63
199.92
210.45
214.49
207.77
188.52
158.10
120.96
83.96
55.11
40.71
43.99
63.33
92.12
120.25
136.86
133.11
104.42
51.69
-19.10
-97.39
-169.99
-223.83
-249.37
-243.63
-211.52
-164.45
-116.55
-80.04
-61.49
-60.89
-73.21
-91.38
-108.83
-120.81
-124.38
-118.14
-102.17
-78.36
-50.41
-23.05
-0.65
14.19
21.50
23.54
23.53
24.18
26.80
31.29
36.71
42.12
47.12
51.80
56.38
60.75
64.27
65.80
64.10
58.14
47.59
33.26
17.33
3.21
-5.19
-4.79
5.21
22.61
42.54
59.15
67.79
66.82
58.01
45.40
33.37
24.82
20.47
19.38
19.96
20.85
21.13
19.88
15.87
7.69
-5.50
-23.03
-42.11
-58.30
-66.77
-63.95
-48.91
-23.84
6.52
36.29
60.07
74.42
78.61
74.58
66.05
57.18
51.16
49.30
50.85
53.55
54.64
51.86
43.97
30.93
13.65
-6.19
-26.31
-43.97
-56.29
-60.97
-56.95
-45.08
-28.04
-9.73
5.89
16.11
20.50
21.27
22.58
29.08
43.88
66.83
93.86
117.74
129.97
123.38
94.46
44.88
-18.21
-83.47
-137.80
-169.67
-172.40
-146.28
-98.65
-41.73
11.15
49.52
68.40
68.55
54.82
33.45
9.89
-12.13
-30.29
-42.93
-48.78
-47.40
-40.03
-29.97
-21.85
-19.84
-25.61
-37.24
-49.81
-57.57
-56.62
-46.74
-31.43
-16.11
-5.61
-2.09
-4.46
-9.37
-12.97
-12.64
-7.84
0.03
8.49
15.11
18.23
17.23
12.36
4.44
-5.49
-16.28
-26.77
-35.82
-42.38
-45.69
-45.57
-42.58
-38.04
-33.82
-31.81
-33.30
-38.49
-46.33
-54.72
-61.05
-62.93
-58.76
-48.15
-31.94
-11.99
9.29
29.45
46.48
59.14
67.04
70.58
70.68
68.59
65.64
63.02
61.63
61.88
63.57
65.93
67.98
68.89
68.41
66.93
65.24
64.15
64.13
65.20
66.95
68.77
69.93
69.65
67.30
62.64
55.98
48.18
40.40
33.54
27.90
23.16
18.59
13.60
7.98
1.99
-3.84
-9.01
-13.19
-16.30
-18.44
-19.82
-20.72
-21.39
-21.98
-22.57
-23.19
-23.94
-25.02
-26.62
-28.78
-31.25
-33.50
-34.90
-35.07
-33.96
-31.78
-28.77
-25.04
-20.66
-15.93
-11.58
-8.67
-8.10
-10.05
-13.67
-17.21
-18.73
-16.94
-11.81
-4.52
3.05
9.09
12.48
12.91
10.66
6.15
-0.28
-8.39
-17.85
-28.00
-37.87
-46.53
-53.60
-59.49
-65.47
-73.03
-83.11
-95.34
-107.80
-117.41
-120.84
-115.69
-101.25
-78.76
-50.90
-20.96
8.05
33.96
55.64
72.74
85.39
93.88
98.45
99.14
95.75
87.87
75.21
57.99
37.31
15.22
-5.63
-22.84
-34.93
-41.70
-44.09
-43.53
-41.35
-38.43
-35.21
-31.87
-28.62
-25.68
-23.20
-21.13
-19.32
-17.61
-16.02
-14.78
-14.17
-14.42
-15.53
-17.32
-19.48
-21.60
-23.06
-23.02
-20.42
-14.30
-4.37
8.59
22.62
35.07
43.56
46.98
45.90
42.25
38.33
35.65
34.34
33.25
30.72
25.50
17.33
7.07
-3.78
-13.66
-21.51
-26.96
-30.32
-32.23
-33.32
-33.88
-33.82
-32.88
-30.92
-28.19
-25.28
-22.90
-21.48
-20.97
-20.92
-20.72
-19.94
-18.42
-16.13
-12.99
-8.69
-2.76
5.12
14.83
25.56
35.98
44.48
49.76
51.29
49.56
45.92
42.09
39.37
38.23
38.17
38.21
37.52
35.90
33.80
31.92
30.66
29.86
28.87
27.05
24.16
20.42
16.38
12.49
8.91
5.53
2.19
-1.19
-4.56
-7.85
-11.10
-14.48
-18.15
-22.06
-25.78
-28.59
-29.64
-28.35
-24.63
-19.07
-12.73
-6.82
-2.27
0.55
1.93
2.54
3.02
3.63
4.17
4.09
2.77
-0.16
-4.72
-10.59
-17.27
-24.31
-31.39
-38.46
-45.64
-53.07
-60.67
-67.98
-74.17
-78.17
-79.10
-76.57
-70.85
-62.79
-53.56
-44.36
-36.08
-29.19
-23.61
-18.74
-13.61
-7.20
1.25
11.72
23.31
34.30
42.78
47.35
47.68
44.69
39.97
35.14
31.07
27.69
24.35
20.45
15.97
11.53
8.06
6.16
5.65
5.70
5.21
3.50
0.59
-2.81
-5.82
-7.83
-8.76
-8.96
-8.90
-8.82
-8.64
-8.10
-7.03
-5.59
-4.23
-3.46
-3.59
-4.49
-5.61
-6.18
-5.54
-3.39
0.16
4.70
9.67
14.54
18.82
22.06
23.84
23.85
22.09
19.03
15.52
12.44
10.33
9.04
7.79
5.61
1.87
-3.29
-9.00
-14.11
-17.72
-19.61
-20.21
-20.33
-20.65
-21.52
-22.87
-24.47
-26.09
-27.56
-28.73
-29.34
-29.14
-27.95
-25.90
-23.29
-20.44
-17.39
-13.75
-8.94
-2.54
5.35
14.06
22.61
30.20
36.42
41.35
45.15
47.86
49.26
49.02
47.05
43.67
39.51
35.15
30.93
26.82
22.68
18.58
14.92
12.29
11.06
11.02
11.37
11.03
9.24
5.92
1.69
-2.52
-6.05
-8.79
-11.23
-14.10
-17.82
-22.28
-26.76
-30.21
-31.66
-30.56
-27.05
-21.89
-16.25
-11.30
-7.72
-5.49
-3.82
-1.62
2.05
7.45
14.00
20.45
25.42
27.82
27.23
23.98
18.99
13.51
8.87
6.29
6.57
9.79
15.11
20.72
24.46
24.44
19.97
11.79
1.90
-7.32
-13.98
-17.31
-17.62
-15.83
-12.84
-9.17
-4.98
-0.40
4.06
7.52
9.05
8.20
5.39
1.87
-0.70
-1.01
1.39
5.88
11.07
15.42
17.82
17.90
16.00
12.81
8.97
4.86
0.58
-3.91
-8.52
-12.87
-16.23
-17.77
-16.87
-13.53
-8.42
-2.64
2.71
6.95
9.99
12.26
14.37
16.86
20.11
24.41
30.11
37.54
46.87
57.89
70.09
82.89
95.90
109.13
122.99
138.05
154.75
173.20
193.14
213.81
233.70
250.25
259.86
258.76
244.15
215.22
173.66
123.32
68.99
15.01
-35.90
-83.19
-127.58
-170.27
-212.79
-257.02
-305.15
-358.85
-417.84
-478.60
-534.53
-576.58
-596.30
-589.33
-557.34
-507.38
-448.83
-389.83
-335.07
-285.93
-240.86
-197.33
-153.32
-107.78
-59.89
-8.16
49.51
116.80
190.27
261.04
318.85
357.21
375.30
376.58
366.43
350.29
332.52
315.66
301.42
290.53
282.12
273.28
259.61
237.02
203.64
161.14
114.26
69.91
34.45
11.16
-0.58
-4.68
-5.13
-4.63
-4.31
-4.46
-4.95
-5.87
-7.79
-11.22
-16.08
-21.34
-25.48
-27.12
-25.84
-22.00
-16.47
-10.29
-4.10
1.92
7.87
13.57
18.31
20.94
20.13
16.90
12.45
8.82
8.33
12.90
23.24
38.82
58.06
78.97
99.79
119.05
135.90
149.77
160.22
166.79
169.28
167.99
163.77
157.87
151.17
144.08
136.39
127.41
116.19
101.85
83.70
61.31
34.74
4.55
-27.70
-59.44
-87.45
-108.75
-121.62
-126.54
-126.40
-125.80
-129.61
-141.01
-160.20
-184.37
-208.93
-229.43
-243.26
-250.38
-252.63
-252.44
-251.48
-250.14
-247.81
-243.65
-237.00
-227.39
-214.21
-196.55
-173.52
-144.85
-111.50
-75.53
-39.39
-4.93
27.33
58.05
88.23
118.21
146.96
172.27
191.62
203.25
206.82
203.46
195.31
184.98
175.02
167.48
163.52
163.04
164.58
165.85
164.56
159.38
150.54
139.50
127.93
116.68
105.19
91.86
75.09
54.22
30.02
4.31
-20.69
-43.12
-61.79
-76.28
-86.75
-93.79
-98.29
-101.36
-104.17
-107.75
-112.76
-119.37
-127.34
-136.10
-144.96
-153.23
-160.36
-166.01
-170.05
-172.43
-173.02
-171.50
-167.35
-159.98
-149.09
-134.87
-118.15
-100.32
-83.05
-67.93
-56.07
-47.81
-42.71
-39.71
-37.60
-35.52
-33.35
-31.75
-31.88
-34.77
-40.67
-48.86
-57.78
-65.69
-71.32
-74.33
-75.26
-75.17
-75.15
-75.93
-77.60
-79.46
-80.04
-77.20
-68.68
-52.88
-29.70
-0.98
29.87
58.93
83.10
101.21
114.10
124.09
133.74
144.88
158.03
172.42
186.51
198.57
207.32
212.17
213.27
211.23
206.80
200.51
192.57
182.88
171.27
157.65
142.02
124.49
105.25
84.65
63.45
42.76
23.87
7.63
-6.04
-18.44
-31.59
-47.48
-66.92
-89.03
-111.44
-131.28
-146.46
-156.47
-162.42
-166.38
-170.30
-175.31
-181.31
-187.20
-191.29
-191.76
-187.21
-177.04
-161.77
-143.07
-123.28
-104.69
-88.83
-76.03
-65.58
-56.30
-47.09
-37.19
-26.18
-13.86
-0.34
13.71
26.94
37.48
43.59
44.45
40.57
33.85
26.79
21.65
19.77
21.19
24.83
28.94
31.67
31.56
27.97
21.32
12.97
4.92
-0.87
-3.10
-1.68
2.25
6.72
9.71
9.95
7.36
3.10
-0.98
-3.01
-1.84
2.72
9.86
18.18
26.14
32.42
36.10
36.79
34.67
30.40
24.98
19.57
15.04
11.73
9.49
8.00
7.24
7.87
10.95
17.44
27.39
39.66
52.19
62.80
69.91
73.05
72.62
69.45
64.24
57.40
49.15
39.77
29.70
19.53
9.86
1.16
-6.23
-12.06
-16.17
-18.53
-19.22
-18.46
-16.53
-13.61
-9.81
-5.16
0.24
6.15
12.20
17.87
22.57
25.80
27.07
26.09
22.68
16.94
9.31
0.62
-7.98
-15.26
-20.25
-22.49
-22.15
-19.98
-17.08
-14.57
-13.40
-14.14
-16.95
-21.50
-26.93
-31.80
-34.27
-32.59
-25.64
-13.49
2.41
19.62
35.43
47.64
55.05
57.41
54.96
48.00
36.69
21.45
3.38
-15.54
-32.79
-46.20
-54.72
-58.70
-59.30
-57.65
-54.09
-48.02
-38.60
-25.60
-10.03
5.92
19.67
29.22
33.97
34.93
34.24
34.35
37.11
43.15
51.70
60.90
68.53
72.82
73.12
69.95
64.63
58.63
52.84
47.42
42.00
36.23
30.23
24.74
20.78
19.20
20.32
23.91
29.44
36.20
43.34
49.70
53.90
54.67
51.55
45.43
38.57
34.01
34.44
41.15
53.60
69.77
87.08
103.44
117.81
130.23
141.34
151.82
162.01
171.89
181.31
190.25
199.11
208.69
220.03
234.03
250.97
270.05
289.11
304.79
313.29
311.27
296.89
270.29
233.76
191.41
148.57
110.90
83.24
68.26
65.51
71.22
79.37
83.77
80.19
67.63
48.04
24.88
1.36
-20.66
-40.61
-58.40
-73.60
-85.34
-92.85
-96.43
-97.76
-99.75
-105.52
-117.21
-135.20
-158.06
-183.52
-209.39
-234.64
-259.72
-286.17
-315.87
-350.65
-392.08
-441.35
-498.62
-561.97
-626.44
-684.33
-726.97
-747.53
-743.50
-717.52
-676.08
-626.71
-575.22
-524.39
-474.25
-423.56
-371.15
-316.43
-259.18
-199.18
-136.21
-70.26
-2.16
66.49
133.84
198.21
259.14
317.80
377.07
440.48
510.34
585.57
660.36
725.12
769.13
784.61
769.70
729.16
672.28
609.21
547.77
492.08
443.20
400.71
364.06
332.66
305.34
279.82
253.09
222.45
186.82
147.23
106.34
67.53
33.34
4.87
-18.55
-38.78
-58.15
-78.68
-101.92
-129.01
-160.42
-195.32
-231.07
-263.18
-286.33
-296.25
-291.16
-272.42
-243.59
-208.94
-172.42
-137.41
-107.61
-87.50
-82.14
-95.43
-128.12
-176.67
-233.73
-290.01
-336.41
-365.85
-374.21
-361.00
-330.00
-288.95
-248.52
-219.86
-211.92
-228.76
-268.69
-325.05
-388.43
-449.17
-499.16
-532.87
-547.47
-542.75
-520.72
-485.30
-441.28
-393.22
-344.52
-296.97
-251.30
-207.71
-166.64
-128.83
-94.94
-64.92
-37.69
-11.04
18.02
52.50
94.39
143.15
194.49
240.12
269.52
273.54
248.45
198.70
136.37
77.36
35.77
19.21
27.33
53.60
89.40
127.69
164.81
200.17
234.84
270.27
307.66
347.62
389.61
431.20
467.59
492.13
498.04
480.70
439.57
378.73
305.90
230.47
161.22
104.55
63.32
36.33
18.76
3.48
-16.73
-46.66
-86.70
-132.32
-175.57
-207.81
-222.68
-218.22
-196.91
-164.31
-126.91
-90.26
-58.04
-31.95
-12.00
3.02
15.11
26.68
39.98
56.53
76.63
99.11
121.30
139.66
150.60
151.54
141.89
123.33
99.46
74.43
51.42
31.53
14.19
-1.62
-15.83
-26.62
-31.44
-28.89
-20.20
-9.44
-1.92
-1.95
-11.10
-28.05
-49.68
-72.81
-95.10
-115.02
-131.08
-141.18
-142.70
-133.45
-112.69
-81.66
-43.42
-1.91
38.85
75.41
105.08
125.85
136.40
136.22
125.79
106.55
80.83
51.36
20.76
-8.72
-35.46
-58.24
-76.18
-88.62
-95.25
-96.36
-92.89
-86.43
-78.83
-71.83
-66.58
-63.65
-62.94
-63.98
-66.05
-68.17
-69.17
-67.86
-63.27
-54.97
-43.15
-28.38
-11.45
6.80
25.49
43.82
61.29
78.00
94.84
113.33
134.92
160.08
187.58
214.38
236.19
248.70
248.79
235.40
209.56
173.80
131.02
83.40
31.74
-24.42
-85.62
-150.94
-216.87
-277.13
-324.18
-351.60
-356.19
-338.94
-304.30
-257.99
-204.76
-147.46
-87.60
-27.14
30.13
78.73
113.38
131.57
135.23
130.27
124.10
122.58
127.83
137.99
148.88
156.29
157.72
152.82
142.71
128.94
112.82
95.39
77.55
60.14
43.84
28.95
15.39
2.89
-8.72
-19.12
-27.74
-34.30
-39.50
-45.23
-54.19
-68.80
-89.92
-116.15
-143.83
-167.95
-183.51
-186.86
-176.52
-153.35
-119.90
-79.57
-35.65
9.30
53.50
95.66
134.63
169.20
198.21
220.90
237.24
247.96
254.35
257.92
260.06
261.91
264.24
267.40
271.04
274.16
275.10
272.04
263.45
248.36
226.45
197.83
162.73
121.35
73.94
20.93
-36.80
-97.46
-158.04
-214.27
-261.41
-295.56
-315.19
-322.08
-321.02
-318.22
-318.91
-325.21
-335.19
-343.96
-345.86
-337.12
-317.41
-289.74
-258.76
-228.68
-201.73
-177.83
-155.51
-133.05
-109.44
-84.41
-58.00
-30.11
-0.54
30.51
61.92
91.67
117.32
136.95
149.74
156.08
157.16
154.52
149.56
143.31
136.36
128.81
120.32
110.43
98.91
86.20
73.52
62.47
54.45
49.86
47.81
46.44
43.71
38.34
30.50
21.64
13.86
8.95
7.74
9.86
14.09
18.97
23.29
26.40
28.10
28.45
27.51
25.38
22.32
18.91
15.99
14.42
14.72
16.87
20.36
24.46
28.54
32.25
35.57
38.64
41.59
44.55
47.57
50.74
54.05
57.33
60.25
62.42
63.61
63.88
63.61
63.27
63.18
63.38
63.55
63.26
62.13
60.01
56.97
53.22
49.09
44.99
41.37
38.74
37.48
37.62
38.70
39.60
38.85
35.07
27.66
17.15
5.23
-5.80
-13.82
-17.55
-16.79
-12.16
-4.60
4.92
15.40
25.57
33.70
37.91
36.76
29.81
17.74
1.88
-16.41
-36.22
-57.02
-78.28
-99.10
-118.26
-134.67
-147.86
-158.19
-166.45
-173.22
-178.29
-180.61
-178.79
-171.87
-159.95
-144.41
-127.64
-112.47
-101.49
-96.36
-97.41
-103.56
-112.66
-122.18
-129.95
-134.74
-136.41
-135.62
-133.31
-130.25
-126.89
-123.38
-119.95
-117.10
-115.71
-116.91
-121.90
-131.72
-146.78
-166.43
-188.38
-208.74
-222.73
-225.93
-215.69
-191.95
-157.05
-114.55
-67.63
-18.04
33.96
88.62
145.50
202.73
257.23
305.76
346.09
377.50
400.59
416.37
425.47
427.87
423.12
411.21
393.09
370.67
346.29
321.95
298.68
276.52
254.89
233.15
211.05
188.89
167.34
147.08
128.53
111.69
96.19
81.45
66.96
52.44
37.99
23.97
10.88
-0.86
-11.11
-20.04
-28.07
-35.69
-43.28
-50.99
-58.69
-66.09
-72.91
-79.04
-84.53
-89.65
-94.66
-99.69
-104.61
-109.14
-112.96
-115.89
-118.00
-119.54
-120.79
-121.86
-122.70
-123.12
-122.96
-122.18
-120.60
-117.73
-112.59
-103.93
-90.77
-73.06
-51.95
-29.50
-7.86
11.44
28.00
42.21
54.66
65.55
74.53
81.11
85.14
86.98
87.29
86.34
83.68
78.27
69.03
55.69
39.16
21.34
4.46
-9.71
-20.35
-27.56
-31.96
-34.19
-34.67
-33.59
-31.10
-27.53
-23.34
-19.04
-14.94
-11.11
-7.37
-3.55
0.41
4.42
8.30
11.95
15.33
18.46
21.29
23.61
25.20
25.96
26.02
25.75
25.46
25.20
24.63
23.21
20.48
16.40
11.41
6.09
0.89
-4.21
-9.76
-16.49
-25.08
-35.86
-48.81
-63.47
-78.89
-93.47
-105.11
-111.60
-111.29
-103.76
-90.15
-72.91
-55.07
-39.35
-27.49
-20.08
-16.71
-16.37
-17.87
-20.01
-21.79
-22.39
-21.34
-18.49
-13.99
-8.19
-1.52
5.51
12.47
19.01
24.89
29.98
34.17
37.39
39.50
40.40
39.98
38.29
35.45
31.72
27.36
22.59
17.60
12.58
7.75
3.38
-0.19
-2.67
-3.84
-3.64
-2.18
0.22
3.20
6.44
9.72
12.97
16.12
19.04
21.50
23.20
23.93
23.67
22.62
21.10
19.37
17.55
15.60
13.42
10.93
8.13
5.14
2.09
-0.86
-3.55
-5.89
-7.80
-9.30
-10.50
-11.57
-12.63
-13.78
-15.06
-16.51
-18.18
-20.17
-22.49
-25.13
-27.94
-30.73
-33.32
-35.49
-36.96
-37.38
-36.35
-33.55
-29.00
-23.06
-16.41
-9.79
-3.75
1.47
5.94
9.86
13.37
16.49
19.13
21.24
22.88
24.21
25.45
26.69
27.87
28.82
29.30
29.21
28.60
27.68
26.76
26.07
25.73
25.64
25.63
25.45
24.96
24.13
23.05
21.84
20.62
19.41
18.12
16.55
14.40
11.38
7.35
2.37
-3.21
-8.78
-13.67
-17.28
-19.26
-19.52
-18.25
-15.76
-12.42
-8.61
-4.71
-1.09
1.92
4.11
5.52
6.42
7.25
8.46
10.34
12.96
16.14
19.58
22.99
26.20
29.20
32.10
35.05
38.18
41.52
45.01
48.45
51.62
54.31
56.39
57.85
58.74
59.13
59.05
58.44
57.13
54.87
51.35
46.36
39.81
31.87
22.97
13.75
4.89
-3.17
-10.43
-17.38
-24.86
-33.72
-44.44
-56.82
-69.90
-82.17
-92.00
-98.14
-100.10
-98.21
-93.44
-86.94
-79.69
-72.28
-64.96
-57.87
-51.20
-45.21
-40.14
-35.98
-32.46
-29.25
-26.16
-23.37
-21.31
-20.46
-20.99
-22.70
-25.09
-27.68
-30.26
-32.97
-36.01
-39.37
-42.66
-45.23
-46.55
-46.56
-45.74
-44.97
-45.00
-46.12
-47.92
-49.44
-49.60
-47.61
-43.21
-36.74
-28.99
-20.94
-13.52
-7.38
-2.67
1.04
4.80
10.12
18.50
30.81
46.64
64.08
80.04
91.20
95.06
90.78
79.41
63.55
46.49
31.48
21.01
16.54
18.28
25.22
35.14
45.06
51.81
53.00
47.69
36.73
22.38
7.52
-5.46
-15.32
-22.19
-26.99
-30.56
-32.92
-33.13
-29.87
-22.39
-11.28
1.43
12.95
20.89
24.23
23.69
21.23
19.13
18.95
21.15
25.17
29.93
34.25
37.21
38.16
36.75
33.11
27.89
22.18
17.22
13.85
12.23
11.70
11.18
9.75
7.09
3.71
0.68
-0.82
-0.02
3.21
8.38
14.62
21.06
26.99
32.01
35.97
39.01
41.50
44.15
47.95
53.93
62.74
74.16
86.85
98.49
106.47
108.65
104.08
93.28
78.00
60.68
43.74
29.04
17.58
9.45
4.01
0.22
-2.95
-6.16
-9.52
-12.66
-14.95
-15.85
-15.16
-13.01
-9.65
-5.27
0.10
6.48
13.74
21.44
28.83
35.03
39.27
41.15
40.63
38.03
33.88
28.66
22.58
15.26
5.64
-7.82
-26.54
-50.99
-79.83
-109.78
-136.19
-154.33
-160.99
-155.50
-139.86
-117.95
-94.17
-72.31
-54.91
-43.46
-38.60
-40.18
-46.78
-55.37
-61.81
-62.24
-55.14
-42.62
-30.14
-24.41
-30.60
-50.20
-80.54
-116.22
-151.21
-180.79
-202.25
-214.62
-218.00
-213.05
-200.96
-183.54
-162.96
-141.22
-119.46
-97.65
-74.95
-50.59
-24.74
1.10
24.50
43.11
55.69
62.67
65.86
67.39
68.74
70.02
70.28
68.25
63.25
55.69
46.87
38.42
31.71
27.63
26.57
28.54
33.39
40.71
49.73
59.26
67.74
73.53
75.33
72.47
65.08
54.00
40.61
26.54
13.44
2.71
-4.74
-8.79
-10.18
-10.34
-10.98
-13.55
-18.62
-25.59
-32.83
-38.30
-40.44
-38.88
-34.71
-30.03
-27.11
-27.35
-30.82
-36.31
-42.01
-46.34
-48.46
-48.69
-48.62
-51.20
-60.21
-79.05
-108.89
-147.22
-187.70
-221.88
-242.06
-244.25
-229.30
-201.87
-167.78
-131.53
-95.10
-58.60
-21.58
15.84
52.95
89.20
124.80
160.67
197.50
234.87
270.87
302.50
326.66
341.29
346.01
342.09
331.92
318.23
303.41
288.98
275.48
262.70
250.12
237.51
225.05
213.28
202.71
193.40
184.78
175.73
165.05
151.96
136.51
119.57
102.75
87.96
76.88
70.42
68.24
68.62
68.47
64.07
51.93
29.90
-1.91
-40.59
-81.01
-117.31
-144.69
-160.82
-165.98
-162.18
-151.75
-136.42
-117.43
-96.22
-75.14
-57.16
-44.94
-39.47
-39.57
-42.40
-44.90
-45.00
-42.11
-36.82
-30.14
-23.22
-17.19
-13.27
-12.54
-15.51
-21.98
-31.21
-42.48
-55.48
-70.44
-87.64
-106.82
-126.92
-146.35
-163.76
-178.59
-191.35
-202.92
-213.70
-222.77
-227.81
-225.73
-213.92
-191.41
-159.59
-122.08
-83.83
-49.73
-23.23
-5.58
4.37
9.44
13.07
18.17
26.23
36.86
47.89
56.23
58.99
54.76
44.30
30.37
16.69
6.65
2.23
3.81
10.54
21.00
33.72
47.23
60.06
70.69
77.90
81.14
80.71
77.58
73.02
68.16
63.89
60.84
59.43
59.65
61.01
62.50
63.03
61.95
59.60
57.16
56.19
57.86
62.39
68.95
75.80
80.83
82.08
78.36
69.62
57.21
43.60
31.61
23.40
19.61
19.29
20.64
22.28
24.25
28.08
35.89
49.07
67.35
88.89
111.25
132.37
151.00
166.15
176.29
178.92
170.90
149.92
115.70
70.49
18.57
-35.44
-88.08
-137.98
-185.84
-233.95
-285.18
-342.01
-405.08
-471.97
-536.67
-590.39
-624.06
-631.51
-611.83
-569.80
-513.77
-452.18
-390.48
-330.20
-270.38
-210.31
-151.55
-97.89
-53.45
-20.13
3.60
21.97
39.70
59.89
83.30
108.96
135.90
164.25
195.09
229.28
266.15
303.16
336.78
364.06
383.79
396.76
404.93
410.36
414.44
417.88
421.03
424.46
429.06
435.78
445.09
456.40
467.83
476.46
479.05
472.99
457.07
431.84
399.19
361.72
321.88
281.52
241.92
204.18
169.56
139.45
115.00
96.31
82.23
70.26
57.35
40.84
19.29
-7.21
-37.30
-69.02
-100.54
-130.68
-159.17
-186.60
-214.15
-242.99
-273.67
-305.89
-338.36
-369.41
-397.73
-423.12
-446.82
-471.46
-500.39
-536.44
-580.38
-629.52
-677.44
-715.22
-734.13
-728.86
-699.60
-651.94
-594.39
-534.89
-478.09
-424.76
-373.24
-321.86
-270.51
-220.72
-174.37
-132.17
-93.05
-54.67
-14.41
29.76
78.99
133.03
189.90
245.33
292.70
323.93
331.26
309.73
259.15
185.02
97.84
10.86
-62.71
-112.52
-132.89
-123.61
-89.53
-39.33
16.53
67.65
105.90
126.68
129.53
117.70
96.83
73.12
51.29
33.24
17.78
1.41
-19.83
-48.66
-85.03
-125.72
-164.95
-196.05
-213.36
-213.79
-197.59
-167.63
-128.15
-83.21
-35.92
11.19
55.39
93.24
121.34
137.80
143.91
144.32
145.90
154.77
173.85
201.40
231.83
258.22
275.04
279.95
273.88
259.84
241.15
220.31
198.68
177.11
156.57
138.40
124.10
114.54
109.33
106.87
104.95
101.78
96.74
90.55
84.67
80.36
77.92
76.51
74.68
71.09
65.27
57.77
49.90
43.14
38.56
36.46
36.33
37.12
37.54
36.41
32.97
27.14
19.45
11.00
3.20
-2.57
-5.18
-4.09
0.33
6.88
13.71
18.92
21.12
19.85
15.56
9.26
2.03
-5.32
-12.29
-18.50
-23.51
-26.78
-27.90
-26.91
-24.37
-21.23
-18.39
-16.42
-15.48
-15.43
-16.13
-17.62
-20.09
-23.77
-28.64
-34.35
-40.23
-45.41
-49.10
-50.73
-50.12
-47.49
-43.41
-38.62
-33.90
-29.78
-26.45
-23.59
-20.45
-15.91
-8.76
2.04
16.97
35.72
57.04
78.88
98.90
115.03
126.15
132.21
134.22
133.66
132.07
130.64
129.99
130.21
130.91
131.29
130.43
127.63
122.74
116.40
109.69
103.50
97.75
91.01
80.80
64.67
41.34
11.50
-22.06
-55.21
-83.50
-103.23
-112.18
-109.99
-98.10
-79.43
-57.58
-36.03
-17.33
-2.64
8.05
15.24
19.00
18.36
11.18
-5.15
-32.58
-71.40
-119.59
-172.96
-225.94
-272.55
-307.45
-326.56
-327.56
-310.31
-277.06
-232.44
-182.93
-135.59
-96.29
-68.10
-50.62
-40.53
-33.40
-25.58
-15.35
-2.86
10.78
24.50
37.83
50.65
62.65
72.98
80.54
84.60
85.48
84.51
83.56
84.22
87.13
91.98
97.80
103.60
108.55
112.16
113.98
113.62
110.58
104.49
95.18
82.91
68.39
52.62
36.75
21.85
8.67
-2.38
-11.26
-18.06
-22.88
-25.80
-26.95
-26.62
-25.34
-23.90
-23.07
-23.48
-25.35
-28.49
-32.33
-36.10
-39.01
-40.47
-40.19
-38.24
-34.93
-30.64
-25.66
-20.17
-14.30
-8.28
-2.52
2.49
6.50
9.49
11.83
14.00
16.29
18.70
21.08
23.33
25.60
28.12
30.86
33.23
34.15
32.55
28.00
21.22
13.96
8.34
5.94
7.16
11.14
16.28
21.01
24.39
26.32
27.20
27.65
28.17
29.02
30.24
31.53
32.15
30.91
26.31
17.11
2.91
-15.19
-34.60
-51.57
-62.35
-64.50
-57.88
-44.94
-30.04
-17.95
-12.23
-14.10
-22.27
-33.68
-44.82
-52.93
-56.52
-55.58
-51.01
-44.14
-36.31
-28.62
-21.78
-16.01
-11.22
-7.41
-5.21
-6.00
-11.55
-23.18
-40.69
-61.91
-83.09
-100.07
-109.81
-111.45
-106.58
-98.42
-90.58
-85.75
-85.02
-87.87
-92.72
-97.71
-101.38
-102.90
-101.97
-98.74
-93.54
-86.99
-79.89
-73.14
-67.45
-63.17
-60.50
-59.81
-61.66
-66.37
-73.29
-80.08
-82.94
-77.71
-61.33
-33.13
4.82
48.17
91.39
128.93
156.26
170.94
173.20
166.06
154.40
143.19
135.72
132.68
132.61
133.49
134.23
135.09
136.93
139.92
142.90
143.74
140.61
133.17
122.83
111.99
102.82
96.26
91.72
87.74
82.73
75.77
66.87
56.76
46.51
37.02
28.75
21.69
15.50
9.74
4.18
-1.11
-5.78
-9.37
-11.60
-12.54
-12.67
-12.62
-12.94
-13.81
-14.94
-15.73
-15.57
-14.15
-11.63
-8.61
-5.88
-4.16
-3.79
-4.72
-6.58
-8.82
-11.00
-12.85
-14.38
-15.76
-17.17
-18.71
-20.26
-21.56
-22.29
-22.21
-21.25
-19.50
-17.17
-14.42
-11.34
-7.95
-4.33
-0.72
2.40
4.47
5.00
3.80
1.08
-2.61
-6.57
-10.07
-12.59
-13.85
-13.82
-12.75
-11.10
-9.43
-8.34
-8.21
-9.13
-10.88
-13.05
-15.24
-17.16
-18.69
-19.83
-20.63
-21.17
-21.52
-21.79
-22.13
-22.63
-23.29
-23.96
-24.37
-24.17
-23.08
-20.98
-17.94
-14.19
-10.01
-5.72
-1.60
2.13
5.28
7.77
9.63
11.01
12.11
13.10
13.98
14.60
14.76
14.32
13.35
12.11
10.96
10.19
9.91
10.06
10.45
10.91
11.29
11.47
11.36
10.86
9.95
8.71
7.32
6.00
4.85
3.80
2.63
1.04
-1.11
-3.80
-6.85
-10.05
-13.24
-16.39
-19.49
-22.43
-25.02
-26.97
-28.14
-28.59
-28.71
-29.07
-30.19
-32.37
-35.56
-39.46
-43.69
-48.00
-52.37
-57.01
-62.14
-67.83
-73.94
-80.16
-86.19
-91.93
-97.48
-103.10
-108.97
-115.11
-121.42
-127.84
-134.50
-141.63
-149.31
-157.07
-163.67
-167.20
-165.64
-157.61
-143.01
-123.32
-101.12
-79.27
-59.80
-43.29
-28.82
-14.68
0.74
17.93
36.02
53.22
67.74
78.52
85.51
89.42
91.41
93.11
96.56
104.23
118.34
139.89
167.44
196.90
222.63
239.37
244.78
240.22
230.31
220.85
216.25
217.33
220.49
219.03
205.96
178.09
137.40
90.81
47.86
17.01
2.49
3.17
14.20
29.83
47.01
64.19
80.11
93.11
101.67
105.63
107.11
110.17
118.79
136.02
159.26
180.43
189.69
180.87
154.87
119.64
86.76
66.62
66.70
86.36
117.35
148.06
168.84
174.91
166.41
146.51
103.95
38.44
-38.96
-111.77
-168.45
-205.76
-225.72
-232.64
-230.77
-223.06
-209.68
-192.11
-173.43
-157.23
-143.98
-133.57
-125.18
