1478926230.00
64.000000
-0.00
-0.00
-0.00
-0.00
-0.00
-0.00
-0.00
-0.00
-0.00
-0.00
0.00
0.01
0.01
-0.00
-0.03
-0.05
-0.05
0.00
0.13
0.36
0.66
1.01
1.37
1.72
2.06
2.40
2.79
3.24
3.80
4.42
5.06
5.66
6.20
6.68
7.15
7.68
8.31
9.14
10.09
11.04
11.88
12.56
13.14
13.76
14.65
15.96
17.91
20.32
22.90
25.38
27.58
29.57
31.68
34.32
37.81
42.54
48.15
54.10
59.83
64.97
69.58
74.14
79.34
85.71
93.76
103.00
112.62
121.73
129.77
136.75
143.30
150.75
157.77
166.64
177.95
191.79
206.97
220.56
228.24
225.36
208.54
176.89
132.80
80.09
23.08
-35.00
-92.59
-149.42
-205.60
-260.81
-314.21
-364.34
-410.29
-451.38
-487.03
-516.37
-537.98
-550.07
-550.86
-539.26
-515.06
-479.50
-434.75
-383.47
-328.28
-271.39
-214.42
-158.56
-104.83
-54.16
-7.64
33.71
69.14
98.41
121.78
139.99
153.91
164.32
171.69
176.17
177.73
176.42
172.54
166.71
159.77
152.45
145.23
138.14
130.84
122.89
114.01
104.30
94.25
84.54
75.74
68.09
61.40
55.18
48.89
42.08
34.43
25.79
16.34
6.93
-0.84
-4.85
-3.28
4.44
17.06
31.73
45.02
54.26
58.50
58.53
56.10
52.91
49.83
46.90
43.78
40.30
36.66
33.28
30.49
28.27
26.28
24.13
21.52
18.49
15.37
12.58
10.47
9.16
8.44
7.88
6.99
5.58
3.87
2.53
2.23
3.28
5.33
7.42
8.45
7.72
5.29
1.93
-1.27
-3.51
-4.54
-4.67
-4.46
-4.32
-4.40
-4.59
-4.73
-4.75
-4.67
-4.55
-4.39
-4.16
-3.79
-3.28
-2.71
-2.20
-1.84
-1.67
-1.64
-1.66
-1.65
-1.52
-1.26
-0.86
-0.37
0.19
0.73
1.19
1.55
1.81
2.06
2.42
2.97
3.74
4.69
5.70
6.70
7.64
8.54
9.43
10.34
11.19
11.92
12.41
12.50
12.11
11.20
9.76
7.89
5.78
3.47
1.07
-1.37
-3.81
-6.25
-8.63
-10.86
-12.79
-14.26
-15.18
-15.51
-15.37
-14.93
-14.35
-13.75
-13.18
-12.61
-12.03
-11.42
-10.75
-9.98
-9.01
-7.78
-6.25
-4.51
-2.67
-0.93
0.59
1.82
2.73
3.37
3.77
3.95
3.91
3.67
3.19
2.50
1.64
0.71
-0.17
-0.85
-1.25
-1.35
-1.23
-1.02
-0.86
-0.81
-0.90
-1.06
-1.19
-1.27
-1.25
-1.18
-1.09
-1.06
-1.14
-1.36
-1.67
-1.98
-2.17
-2.19
-2.04
-1.86
-1.78
-1.96
-2.47
-3.25
-4.13
-4.92
-5.48
-5.78
-5.80
-5.55
-4.98
-4.07
-2.85
-1.43
0.00
1.26
2.25
3.03
3.72
4.49
5.37
6.31
7.11
7.56
7.57
7.20
6.63
6.05
5.57
5.15
4.73
4.23
3.71
3.27
3.02
2.98
3.06
3.07
2.88
2.46
1.88
1.27
0.77
0.39
0.06
-0.34
-0.91
-1.68
-2.57
-3.43
-4.10
-4.50
-4.70
-4.86
-5.16
-5.75
-6.64
-7.72
-8.84
-9.87
-10.71
-11.30
-11.58
-11.45
-10.83
-9.64
-7.97
-5.99
-3.99
-2.22
-0.81
0.22
0.99
1.64
2.22
2.75
3.16
3.38
3.36
3.11
2.65
2.07
1.43
0.82
0.31
-0.03
-0.16
-0.01
0.46
1.26
2.30
3.48
4.62
5.57
6.25
6.65
6.82
6.81
6.66
6.40
5.98
5.42
4.67
3.72
2.53
1.08
-0.59
-2.34
-4.02
-5.51
-6.77
-7.89
-8.95
-9.97
-10.81
-11.23
-11.00
-10.06
-8.54
-6.71
-4.86
-3.17
-1.68
-0.32
0.96
2.14
3.12
3.79
4.14
4.24
4.26
4.35
4.58
4.88
5.10
5.14
4.99
4.77
4.61
4.61
4.74
4.89
4.95
4.89
4.78
4.73
4.82
4.98
5.08
4.94
4.43
3.50
2.22
0.71
-0.86
-2.33
-3.58
-4.52
-5.22
-5.79
-6.37
-7.05
-7.87
-8.78
-9.67
-10.39
-10.81
-10.83
-10.38
-9.48
-8.19
-6.61
-4.88
-3.13
-1.47
0.05
1.40
2.60
3.66
4.58
5.32
5.83
6.08
6.06
5.86
5.55
5.22
4.93
4.68
4.47
4.33
4.30
4.40
4.62
4.88
5.04
4.98
4.64
4.06
3.28
2.40
1.47
0.50
-0.49
-1.50
-2.48
-3.40
-4.25
-5.01
-5.73
-6.44
-7.17
-7.95
-8.80
-9.75
-10.76
-11.71
-12.39
-12.55
-11.97
-10.59
-8.49
-5.95
-3.27
-0.77
1.35
3.02
4.25
5.13
5.70
6.03
6.15
6.14
6.11
6.19
6.43
6.80
7.15
7.30
7.15
6.72
6.13
5.59
5.22
5.08
5.09
5.13
5.10
4.94
4.61
4.12
3.49
2.75
1.95
1.10
0.23
-0.64
-1.52
-2.36
-3.10
-3.74
-4.28
-4.84
-5.55
-6.56
-7.89
-9.45
-11.09
-12.58
-13.74
-14.45
-14.64
-14.22
-13.16
-11.44
-9.18
-6.56
-3.87
-1.40
0.67
2.31
3.65
4.88
6.13
7.40
8.56
9.40
9.81
9.79
9.52
9.25
9.18
9.38
9.74
10.06
10.16
9.96
9.54
9.01
8.52
8.11
7.75
7.39
6.95
6.41
5.80
5.18
4.60
4.01
3.35
2.49
1.35
-0.05
-1.60
-3.11
-4.34
-5.18
-5.63
-5.81
-5.98
-6.38
-7.16
-8.32
-9.68
-10.96
-11.83
-12.09
-11.63
-10.55
-9.04
-7.31
-5.54
-3.81
-2.14
-0.52
1.03
2.46
3.71
4.77
5.65
6.36
6.91
7.26
7.39
7.33
7.14
6.92
6.76
6.71
6.70
6.64
6.44
6.08
5.60
5.12
4.74
4.51
4.37
4.23
3.95
3.42
2.61
1.55
0.38
-0.77
-1.77
-2.57
-3.22
-3.82
-4.54
-5.53
-6.83
-8.38
-10.01
-11.45
-12.44
-12.79
-12.38
-11.24
-9.47
-7.26
-4.84
-2.46
-0.32
1.43
2.76
3.71
4.43
5.02
5.56
6.04
6.43
6.68
6.81
6.91
7.05
7.29
7.61
7.94
8.20
8.30
8.23
7.99
7.63
7.16
6.62
6.00
5.34
4.68
4.04
3.44
2.86
2.26
1.58
0.79
-0.14
-1.20
-2.31
-3.40
-4.37
-5.20
-5.90
-6.57
-7.33
-8.29
-9.48
-10.85
-12.17
-13.16
-13.51
-13.04
-11.73
-9.76
-7.45
-5.12
-2.99
-1.15
0.46
1.94
3.38
4.75
6.00
7.03
7.77
8.24
8.49
8.62
8.67
8.68
8.64
8.56
8.46
8.41
8.48
8.70
9.05
9.41
9.66
9.69
9.48
9.08
8.58
8.06
7.60
7.18
6.81
6.47
6.12
5.77
5.41
5.05
4.71
4.42
4.23
4.16
4.17
4.11
3.78
2.97
1.50
-0.64
-3.32
-6.24
-9.02
-11.28
-12.77
-13.36
-13.09
-12.16
-10.84
-9.46
-8.29
-7.53
-7.26
-7.45
-7.97
-8.65
-9.30
-9.75
-9.86
-9.60
-9.04
-8.34
-7.72
-7.37
-7.31
-7.45
-7.61
-7.62
-7.42
-7.07
-6.67
-6.33
-6.08
-5.89
-5.72
-5.56
-5.45
-5.44
-5.60
-5.88
-6.16
-6.25
-5.99
-5.29
-4.20
-2.85
-1.36
0.17
1.68
3.15
4.45
5.41
5.84
5.66
4.98
4.09
3.37
3.10
3.36
4.04
4.95
5.90
6.81
7.66
8.46
9.20
9.84
10.36
10.75
11.03
11.23
11.33
11.27
10.94
10.27
9.26
7.98
6.62
5.36
4.34
3.60
3.07
2.59
1.98
1.13
-0.02
-1.50
-3.37
-5.73
-8.74
-12.51
-17.03
-22.12
-27.43
-32.61
-37.33
-41.38
-44.67
-47.10
-48.63
-49.25
-49.03
-48.19
-47.02
-45.73
-44.30
-42.35
-39.28
-34.49
-27.68
-19.05
-9.26
0.81
10.35
18.78
25.75
31.08
34.60
36.22
36.03
34.43
32.06
29.63
27.67
26.40
25.68
25.15
24.46
23.43
22.02
20.34
18.56
16.89
15.53
14.67
14.39
14.71
15.51
16.59
17.70
18.57
18.99
18.78
17.92
16.45
14.55
12.45
10.37
8.53
7.04
5.92
5.09
4.39
3.62
2.61
1.30
-0.24
-1.82
-3.20
-4.12
-4.40
-3.93
-2.67
-0.66
2.01
5.18
8.61
12.00
15.05
17.51
19.26
20.33
20.88
21.08
21.04
20.78
20.24
19.36
18.14
16.66
15.03
13.30
11.46
9.49
7.44
5.46
3.72
2.33
1.22
0.17
-1.03
-2.49
-4.13
-5.68
-6.88
-7.60
-7.89
-7.98
-8.13
-8.52
-9.19
-10.11
-11.15
-12.19
-13.18
-14.10
-15.01
-15.96
-17.03
-18.23
-19.54
-20.91
-22.31
-23.70
-25.02
-26.17
-27.06
-27.54
-27.58
-27.21
-26.54
-25.68
-24.63
-23.34
-21.62
-19.32
-16.38
-12.83
-8.79
-4.44
0.03
4.41
8.46
11.99
14.85
17.00
18.51
19.47
19.97
20.08
19.85
19.35
18.68
17.92
17.10
16.19
15.13
13.89
12.50
11.07
9.71
8.48
7.31
6.11
4.77
3.25
1.58
-0.12
-1.68
-3.01
-4.06
-4.84
-5.44
-5.97
-6.49
-7.01
-7.45
-7.67
-7.53
-6.93
-5.85
-4.35
-2.56
-0.64
1.21
2.85
4.14
5.03
5.56
5.82
5.90
5.90
5.79
5.56
5.16
4.66
4.19
3.92
3.98
4.38
5.05
5.82
6.58
7.27
7.85
8.31
8.55
8.48
8.02
7.19
6.14
5.05
4.09
3.28
2.55
1.78
0.88
-0.15
-1.21
-2.21
-3.10
-3.95
-4.82
-5.77
-6.79
-7.82
-8.78
-9.63
-10.37
-10.98
-11.46
-11.71
-11.60
-11.02
-9.94
-8.45
-6.72
-4.99
-3.42
-2.05
-0.80
0.43
1.71
2.98
4.11
4.94
5.42
5.55
5.43
5.13
4.64
3.95
3.07
2.12
1.33
0.90
0.94
1.33
1.82
2.09
1.94
1.35
0.47
-0.44
-1.15
-1.52
-1.56
-1.37
-1.08
-0.85
-0.79
-0.96
-1.35
-1.92
-2.57
-3.20
-3.77
-4.31
-4.86
-5.49
-6.22
-7.01
-7.85
-8.68
-9.45
-10.08
-10.45
-10.42
-9.87
-8.75
-7.12
-5.13
-3.01
-1.01
0.68
1.93
2.73
3.14
3.32
3.41
3.53
3.70
3.89
4.02
4.00
3.86
3.63
3.39
3.20
3.04
2.90
2.76
2.63
2.54
2.50
2.51
2.53
2.51
2.39
2.13
1.74
1.21
0.56
-0.18
-0.96
-1.70
-2.36
-2.92
-3.41
-3.92
-4.51
-5.20
-5.95
-6.68
-7.25
-7.54
-7.41
-6.78
-5.67
-4.22
-2.65
-1.23
-0.09
0.72
1.36
1.98
2.70
3.49
4.16
4.52
4.45
3.99
3.33
2.67
2.18
1.90
1.79
1.76
1.76
1.76
1.79
1.86
1.98
2.14
2.32
2.47
2.55
2.48
2.19
1.60
0.74
-0.32
-1.47
-2.55
-3.50
-4.29
-4.98
-5.68
-6.50
-7.46
-8.50
-9.45
-10.04
-10.00
-9.17
-7.56
-5.42
-3.15
-1.17
0.21
0.90
1.06
0.99
0.99
1.21
1.63
2.07
2.36
2.43
2.29
2.08
1.88
1.75
1.67
1.62
1.61
1.71
1.94
2.29
2.66
2.89
2.90
2.69
2.37
2.07
1.87
1.74
1.59
1.32
0.92
0.42
-0.09
-0.54
-0.96
-1.44
-2.09
-2.99
-4.16
-5.53
-7.00
-8.39
-9.53
-10.24
-10.36
-9.80
-8.56
-6.78
-4.67
-2.51
-0.57
0.98
2.09
2.87
3.46
3.98
4.46
4.84
5.04
5.04
4.90
4.73
4.60
4.48
4.34
4.10
3.78
3.50
3.38
3.51
3.87
4.36
4.81
5.10
5.19
5.04
4.66
4.07
3.30
2.44
1.59
0.87
0.29
-0.16
-0.56
-1.00
-1.55
-2.24
-3.06
-4.04
-5.15
-6.33
-7.42
-8.26
-8.68
-8.56
-7.86
-6.63
-4.98
-3.05
-1.04
0.83
2.38
3.51
4.23
4.67
4.97
5.23
5.48
5.65
5.66
5.49
5.18
4.86
4.63
4.54
4.60
4.75
4.91
4.98
4.90
4.61
4.10
3.40
2.59
1.76
0.97
0.22
-0.50
-1.22
-1.95
-2.66
-3.34
-4.02
-4.79
-5.72
-6.87
-8.15
-9.36
-10.27
-10.67
-10.54
-9.94
-9.05
-7.97
-6.77
-5.39
-3.81
-2.07
-0.28
1.38
2.80
3.95
4.89
5.68
6.35
6.84
7.03
6.89
6.43
5.81
5.20
4.71
4.37
4.15
3.98
3.81
3.61
3.37
3.03
2.53
1.86
1.05
0.16
-0.70
-1.46
-2.14
-2.73
-3.24
-3.63
-3.85
-3.85
-3.67
-3.40
-3.14
-2.96
-2.91
-3.00
-3.23
-3.67
-4.38
-5.39
-6.65
-7.97
-9.09
-9.71
-9.58
-8.57
-6.71
-4.17
-1.23
1.79
4.63
7.11
9.18
10.86
12.21
13.26
13.95
14.20
13.96
13.27
12.29
11.24
10.29
9.51
8.82
8.10
7.26
6.34
5.45
4.75
4.28
4.02
3.82
3.53
3.05
2.35
1.48
0.54
-0.33
-1.02
-1.49
-1.80
-2.11
-2.61
-3.40
-4.44
-5.53
-6.45
-7.05
-7.36
-7.60
-8.02
-8.79
-9.92
-11.24
-12.50
-13.42
-13.81
-13.57
-12.66
-11.17
-9.26
-7.15
-5.08
-3.25
-1.73
-0.48
0.60
1.60
2.51
3.26
3.74
3.91
3.85
3.72
3.67
3.78
4.01
4.23
4.33
4.29
4.14
3.98
3.91
3.98
4.18
4.42
4.60
4.60
4.36
3.90
3.31
2.66
2.03
1.44
0.86
0.28
-0.31
-0.87
-1.35
-1.79
-2.26
-2.90
-3.84
-5.12
-6.66
-8.30
-9.75
-10.74
-11.03
-10.49
-9.16
-7.25
-5.02
-2.75
-0.66
1.16
2.66
3.85
4.72
5.29
5.58
5.69
5.72
5.77
5.90
6.09
6.28
6.40
6.42
6.37
6.27
6.14
5.98
5.78
5.54
5.24
4.87
4.42
3.88
3.28
2.68
2.15
1.74
1.44
1.21
0.96
0.62
0.12
-0.57
-1.44
-2.47
-3.65
-4.94
-6.29
-7.60
-8.80
-9.80
-10.58
-11.16
-11.53
-11.65
-11.41
-10.70
-9.44
-7.62
-5.39
-3.00
-0.72
1.17
2.57
3.50
4.11
4.60
5.14
5.75
6.34
6.77
6.94
6.86
6.65
6.47
6.44
6.56
6.75
6.85
6.79
6.58
6.29
6.01
5.82
5.68
5.52
5.26
4.86
4.36
3.87
3.50
3.28
3.16
2.96
2.47
1.58
0.34
-1.04
-2.28
-3.20
-3.78
-4.18
-4.63
-5.29
-6.21
-7.28
-8.40
-9.49
-10.49
-11.37
-11.99
-12.18
-11.76
-10.69
-9.12
-7.32
-5.58
-4.12
-2.95
-1.99
-1.10
-0.18
0.75
1.59
2.23
2.59
2.69
2.63
2.54
2.52
2.61
2.79
3.01
3.17
3.27
3.36
3.51
3.79
4.21
4.68
5.05
5.20
5.09
4.74
4.26
3.74
3.22
2.65
2.02
1.31
0.59
-0.05
-0.54
-0.88
-1.14
-1.41
-1.80
-2.36
-3.11
-4.01
-5.04
-6.14
-7.27
-8.37
-9.35
-10.10
-10.46
-10.30
-9.54
-8.23
-6.54
-4.68
-2.88
-1.28
0.09
1.26
2.30
3.22
4.02
4.64
5.03
5.17
5.06
4.75
4.34
3.90
3.52
3.28
3.21
3.30
3.49
3.73
3.96
4.15
4.28
4.36
4.40
4.42
4.41
4.31
4.06
3.62
2.99
2.26
1.51
0.80
0.08
-0.71
-1.61
-2.61
-3.66
-4.68
-5.66
-6.63
-7.62
-8.60
-9.39
-9.77
-9.55
-8.67
-7.28
-5.63
-3.96
-2.43
-1.07
0.21
1.46
2.72
3.94
5.05
5.97
6.65
7.07
7.22
7.12
6.81
6.30
5.66
4.97
4.32
3.84
3.62
3.66
3.88
4.10
4.10
3.74
3.03
2.13
1.30
0.75
0.51
0.50
0.47
0.25
-0.23
-0.90
-1.58
-2.15
-2.58
-2.98
-3.48
-4.22
-5.17
-6.25
-7.32
-8.35
-9.33
-10.33
-11.32
-12.16
-12.63
-12.49
-11.65
-10.13
-8.16
-6.02
-3.96
-2.14
-0.62
0.65
1.75
2.71
3.56
4.25
4.76
5.07
5.25
5.35
5.44
5.52
5.56
5.49
5.32
5.05
4.73
4.41
4.07
3.68
3.16
2.46
1.58
0.55
-0.57
-1.74
-2.88
-3.94
-4.91
-5.80
-6.68
-7.64
-8.72
-9.89
-11.11
-12.32
-13.49
-14.70
-16.09
-17.75
-19.70
-21.80
-23.78
-25.33
-26.14
-26.03
-24.92
-22.87
-20.00
-16.43
-12.32
-7.78
-2.95
2.00
6.88
11.46
15.57
19.08
21.90
24.00
25.37
26.00
25.99
25.48
24.65
23.69
22.70
21.69
20.60
19.40
18.09
16.75
15.46
14.28
13.22
12.23
11.27
10.29
9.29
8.23
7.12
5.93
4.68
3.40
2.14
0.97
-0.03
-0.82
-1.46
-2.04
-2.73
-3.61
-4.67
-5.73
-6.55
-6.89
-6.65
-5.86
-4.64
-3.20
-1.68
-0.25
1.02
2.11
3.05
3.91
4.78
5.70
6.66
7.55
8.23
8.59
8.55
8.13
7.39
6.42
5.35
4.25
3.19
2.19
1.23
0.30
-0.58
-1.35
-1.96
-2.44
-2.88
-3.41
-4.15
-5.09
-6.13
-7.09
-7.81
-8.25
-8.50
-8.72
-9.07
-9.58
-10.19
-10.80
-11.33
-11.76
-12.09
-12.27
-12.17
-11.63
-10.53
-8.86
-6.80
-4.59
-2.48
-0.65
0.89
2.15
3.22
4.15
4.97
5.70
6.32
6.80
7.10
7.21
7.14
6.96
6.74
6.53
6.34
6.18
6.03
5.88
5.73
5.58
5.39
5.14
4.84
4.52
4.25
4.07
3.96
3.82
3.51
2.90
1.97
0.77
-0.54
-1.78
-2.80
-3.55
-4.07
-4.47
-4.92
-5.57
-6.49
-7.65
-8.86
-9.84
-10.33
-10.17
-9.32
-7.92
-6.17
-4.26
-2.33
-0.47
1.25
2.73
3.83
4.51
4.80
4.86
4.88
5.02
5.32
5.66
5.89
5.88
5.61
5.15
4.63
4.19
3.88
3.72
3.65
3.62
3.56
3.42
3.15
2.73
2.19
1.57
0.92
0.25
-0.46
-1.23
-2.06
-2.90
-3.67
-4.31
-4.78
-5.15
-5.50
-5.96
-6.63
-7.53
-8.59
-9.66
-10.50
-10.90
-10.67
-9.77
-8.28
-6.41
-4.42
-2.52
-0.83
0.61
1.83
2.87
3.75
4.44
4.94
5.24
5.40
5.45
5.46
5.44
5.41
5.34
5.23
5.07
4.86
4.62
4.37
4.13
3.93
3.77
3.60
3.37
3.00
2.44
1.66
0.73
-0.24
-1.13
-1.83
-2.35
-2.74
-3.13
-3.64
-4.33
-5.21
-6.21
-7.27
-8.31
-9.22
-9.90
-10.25
-10.15
-9.58
-8.57
-7.21
-5.64
-3.98
-2.32
-0.73
0.76
2.12
3.36
4.43
5.32
6.01
6.50
6.84
7.10
7.34
7.59
7.79
7.86
7.76
7.45
7.01
6.53
6.13
5.88
5.78
5.77
5.75
5.61
5.31
4.84
4.30
3.80
3.42
3.16
2.93
2.59
2.04
1.25
0.32
-0.57
-1.27
-1.73
-1.98
-2.19
-2.54
-3.23
-4.35
-5.90
-7.71
-9.53
-11.04
-11.96
-12.13
-11.54
-10.27
-8.52
-6.50
-4.43
-2.51
-0.89
0.35
1.23
1.89
2.51
3.25
4.13
5.05
5.80
6.22
6.23
5.90
5.40
4.91
4.53
4.30
4.16
4.08
4.04
4.06
4.16
4.30
4.43
4.44
4.27
3.91
3.41
2.78
2.04
1.17
0.15
-0.95
-2.03
-2.97
-3.71
-4.25
-4.70
-5.17
-5.74
-6.42
-7.20
-8.01
-8.74
-9.26
-9.44
-9.18
-8.46
-7.35
-5.98
-4.49
-2.96
-1.39
0.21
1.81
3.32
4.60
5.52
6.03
6.18
6.08
5.85
5.60
5.38
5.21
5.04
4.85
4.62
4.36
4.13
3.97
3.90
3.91
3.93
3.88
3.69
3.33
2.85
2.30
1.71
1.09
0.42
-0.30
-1.02
-1.69
-2.25
-2.68
-3.05
-3.44
-3.92
-4.53
-5.28
-6.15
-7.10
-8.03
-8.82
-9.33
-9.41
-9.00
-8.12
-6.87
-5.36
-3.68
-1.93
-0.16
1.52
3.00
4.18
5.01
5.51
5.69
5.64
5.42
5.11
4.81
4.60
4.54
4.62
4.78
4.93
5.02
5.04
5.05
5.05
5.05
5.00
4.87
4.65
4.37
4.07
3.74
3.31
2.75
2.06
1.29
0.59
0.01
-0.41
-0.74
-1.04
-1.37
-1.73
-2.09
-2.45
-2.85
-3.39
-4.13
-5.06
-6.11
-7.18
-8.17
-9.06
-9.82
-10.41
-10.76
-10.81
-10.49
-9.81
-8.76
-7.45
-5.97
-4.44
-2.98
-1.71
-0.67
0.08
0.58
0.90
1.08
1.19
1.24
1.25
1.25
1.30
1.47
1.79
2.24
2.75
3.18
3.43
3.47
3.34
3.11
2.81
2.35
1.54
0.20
-1.80
-4.38
-7.35
-10.43
-13.39
-16.09
-18.51
-20.73
-22.82
-24.83
-26.66
-28.18
-29.21
-29.61
-29.35
-28.48
-27.15
-25.42
-23.32
-20.78
-17.68
-13.93
-9.59
-4.81
0.13
4.96
9.39
13.25
16.46
18.99
20.88
22.20
23.03
23.46
23.60
23.54
23.31
22.87
22.18
21.21
19.98
18.58
17.14
15.80
14.63
13.62
12.74
11.96
11.29
10.77
10.47
10.36
10.32
10.20
9.84
9.17
8.27
7.27
6.32
5.50
4.76
3.99
3.07
1.94
0.62
-0.76
-2.08
-3.20
-4.08
-4.75
-5.34
-6.01
-6.88
-8.00
-9.28
-10.52
-11.45
-11.83
-11.52
-10.51
-8.91
-6.92
-4.76
-2.61
-0.60
1.17
2.65
3.77
4.50
4.84
4.85
4.69
4.51
4.44
4.52
4.66
4.74
4.62
4.24
3.66
2.96
2.30
1.82
1.63
1.81
2.37
3.22
4.14
4.89
5.28
5.21
4.77
4.09
3.30
2.46
1.55
0.55
-0.49
-1.46
-2.24
-2.78
-3.16
-3.62
-4.38
-5.55
-7.02
-8.52
-9.67
-10.15
-9.81
-8.73
-7.13
-5.32
-3.54
-1.94
-0.53
0.73
1.89
2.93
3.80
4.42
4.78
4.94
5.02
5.17
5.42
5.75
6.02
6.08
5.87
5.41
4.84
4.31
3.92
3.68
3.53
3.36
3.08
2.70
2.23
1.76
1.34
0.94
0.52
-0.02
-0.73
-1.61
-2.62
-3.63
-4.55
-5.33
-5.99
-6.64
-7.36
-8.20
-9.11
-9.94
-10.51
-10.61
-10.12
-9.01
-7.34
-5.27
-3.01
-0.74
1.39
3.29
4.91
6.25
7.34
8.16
8.73
9.04
9.11
8.98
8.70
8.31
7.85
7.36
6.91
6.58
6.38
6.31
6.29
6.18
5.92
5.47
4.92
4.34
3.82
3.37
2.93
2.42
1.82
1.10
0.31
-0.52
-1.38
-2.29
-3.25
-4.22
-5.15
-5.95
-6.57
-7.04
-7.50
-8.12
-9.11
-10.55
-12.37
-14.27
-15.85
-16.73
-16.70
-15.78
-14.18
-12.19
-10.06
-7.90
-5.71
-3.47
-1.21
0.93
2.78
4.22
5.21
5.84
6.28
6.68
7.08
7.45
7.69
7.68
7.43
7.03
6.68
6.55
6.74
7.22
7.85
8.44
8.82
8.88
8.59
7.99
7.18
6.28
5.42
4.73
4.27
4.04
3.98
4.01
3.95
3.66
2.99
1.88
0.37
-1.33
-2.96
-4.28
-5.21
-5.90
-6.59
-7.52
-8.71
-10.00
-11.05
-11.58
-11.47
-10.83
-9.83
-8.64
-7.30
-5.74
-3.90
-1.81
0.37
2.36
3.96
5.07
5.79
6.27
6.71
7.19
7.67
8.01
8.12
7.97
7.63
7.24
6.94
6.78
6.78
6.87
6.98
7.05
7.03
6.88
6.58
6.14
5.61
5.03
4.46
3.93
3.38
2.78
2.09
1.30
0.50
-0.26
-0.92
-1.52
-2.11
-2.80
-3.62
-4.57
-5.62
-6.73
-7.86
-9.02
-10.14
-11.11
-11.77
-11.95
-11.54
-10.55
-9.13
-7.44
-5.65
-3.83
-2.01
-0.21
1.50
2.97
4.05
4.68
4.92
4.93
4.91
4.99
5.16
5.32
5.32
5.09
4.69
4.24
3.89
3.73
3.76
3.93
4.16
4.35
4.47
4.49
4.39
4.17
3.83
3.37
2.84
2.29
1.78
1.34
0.92
0.43
-0.21
-1.05
-2.08
-3.20
-4.27
-5.21
-6.02
-6.75
-7.52
-8.40
-9.38
-10.36
-11.15
-11.58
-11.50
-10.90
-9.80
-8.31
-6.56
-4.66
-2.73
-0.88
0.79
2.22
3.37
4.24
4.82
5.09
5.04
4.66
4.07
3.40
2.86
2.57
2.55
2.69
2.84
2.91
2.89
2.86
2.89
3.01
3.12
3.10
2.84
2.30
1.57
0.76
-0.02
-0.70
-1.29
-1.81
-2.31
-2.82
-3.34
-3.87
-4.38
-4.88
-5.38
-5.92
-6.56
-7.31
-8.12
-8.87
-9.35
-9.37
-8.73
-7.41
-5.50
-3.21
-0.82
1.43
3.35
4.85
5.88
6.45
6.57
6.31
5.77
5.07
4.37
3.85
3.61
3.66
3.93
4.25
4.43
4.35
3.99
3.45
2.91
2.50
2.24
2.07
1.86
1.48
0.87
0.03
-1.02
-2.23
-3.56
-4.96
-6.36
-7.72
-8.98
-10.19
-11.34
-12.48
-13.59
-14.67
-15.71
-16.70
-17.64
-18.45
-19.06
-19.36
-19.29
-18.84
-18.05
-16.96
-15.62
-14.03
-12.17
-10.07
-7.81
-5.54
-3.42
-1.61
-0.17
0.87
1.55
1.90
1.90
1.52
0.74
-0.42
-1.82
-3.24
-4.46
-5.26
-5.56
-5.38
-4.86
-4.15
-3.36
-2.53
-1.61
-0.46
1.08
3.14
5.75
8.79
12.02
15.10
17.72
19.66
20.84
21.31
21.23
20.72
19.87
18.67
17.05
14.96
12.38
9.41
6.23
3.05
0.05
-2.66
-5.02
-7.03
-8.67
-9.87
-10.61
-10.93
-11.02
-11.17
-11.68
-12.74
-14.32
-16.20
-18.08
-19.69
-20.97
-22.04
-23.18
-24.61
-26.44
-28.55
-30.70
-32.63
-34.21
-35.46
-36.57
-37.80
-39.34
-41.34
-43.81
-46.66
-49.67
-52.45
-54.43
-54.98
-53.63
-50.25
-45.11
-38.74
-31.65
-24.01
-15.61
-6.02
5.09
17.64
31.07
44.55
57.28
68.79
79.01
88.19
96.62
104.45
111.63
117.95
123.13
126.90
128.98
129.04
126.67
121.47
113.27
102.31
89.39
75.77
62.94
52.23
44.62
40.49
39.65
41.41
44.78
48.62
51.87
53.79
54.09
52.98
51.04
49.00
47.44
46.60
46.19
45.39
42.96
37.51
27.98
14.04
-3.52
-22.92
-41.73
-57.72
-69.51
-76.86
-80.55
-81.79
-81.71
-80.90
-79.49
-77.36
-74.46
-70.90
-66.94
-62.82
-58.63
-54.34
-49.93
-45.46
-41.09
-37.02
-33.39
-30.19
-27.30
-24.54
-21.76
-18.92
-16.13
-13.57
-11.50
-10.11
-9.53
-9.70
-10.41
-11.36
-12.21
-12.71
-12.76
-12.37
-11.64
-10.71
-9.70
-8.67
-7.70
-6.81
-6.03
-5.38
-4.93
-4.76
-4.97
-5.66
-6.79
-8.28
-9.89
-11.31
-12.25
-12.46
-11.84
-10.42
-8.37
-5.91
-3.32
-0.83
1.38
3.19
4.56
5.47
6.00
6.23
6.30
6.35
6.46
6.64
6.86
7.02
7.03
6.87
6.49
5.95
5.27
4.52
3.77
3.04
2.39
1.80
1.26
0.75
0.21
-0.37
-1.00
-1.61
-2.14
-2.54
-2.80
-3.01
-3.32
-3.89
-4.84
-6.11
-7.49
-8.65
-9.26
-9.10
-8.13
-6.49
-4.44
-2.33
-0.42
1.13
2.27
3.08
3.66
4.15
4.60
5.04
5.42
5.67
5.74
5.62
5.37
5.04
4.68
4.30
3.85
3.31
2.73
2.16
1.65
1.24
0.85
0.45
-0.01
-0.44
-0.75
-0.88
-0.85
-0.81
-0.93
-1.36
-2.11
-3.08
-4.12
-5.13
-6.02
-6.74
-7.22
-7.35
-7.01
-6.13
-4.76
-3.03
-1.18
0.57
2.05
3.17
3.91
4.29
4.32
4.03
3.49
2.80
2.10
1.48
1.00
0.65
0.38
0.21
0.15
0.26
0.56
1.00
1.46
1.79
1.90
1.71
1.27
0.67
0.05
-0.46
-0.74
-0.78
-0.67
-0.62
-0.85
-1.52
-2.64
-4.06
-5.54
-6.82
-7.71
-8.10
-7.94
-7.30
-6.26
-4.97
-3.56
-2.16
-0.84
0.41
1.58
2.69
3.65
4.38
4.82
4.98
4.96
4.90
4.91
5.01
5.12
5.12
4.90
4.46
3.85
3.24
2.79
2.58
2.58
2.63
2.53
2.09
1.27
0.18
-0.95
-1.91
-2.59
-3.06
-3.45
-3.90
-4.46
-5.06
-5.63
-6.15
-6.70
-7.40
-8.32
-9.35
-10.26
-10.74
-10.55
-9.61
-8.02
-6.04
-3.93
-1.92
-0.16
1.35
2.65
3.80
4.83
5.70
6.35
6.74
6.88
6.85
6.74
6.57
6.33
5.99
5.55
5.10
4.80
4.76
5.00
5.41
5.73
5.76
5.38
4.64
3.72
2.85
2.19
1.79
1.56
1.31
0.88
0.18
-0.79
-1.90
-2.99
-3.91
-4.59
-5.07
-5.47
-5.98
-6.73
-7.78
-9.08
-10.45
-11.67
-12.52
-12.81
-12.43
-11.32
-9.53
-7.20
-4.57
-1.91
0.49
2.45
3.92
4.94
5.70
6.34
6.97
7.55
8.00
8.22
8.15
7.85
7.40
6.91
6.46
6.05
5.69
5.38
5.15
4.98
4.87
4.78
4.64
4.39
3.95
3.30
2.42
1.38
0.28
-0.73
-1.53
-2.13
-2.63
-3.21
-4.01
-5.07
-6.28
-7.43
-8.32
-8.83
-8.89
-8.47
-7.60
-6.32
-4.73
-2.98
-1.24
0.33
1.66
2.77
3.75
4.63
5.40
6.01
6.39
6.50
6.36
6.03
5.60
5.14
4.72
4.37
4.11
3.91
3.79
3.70
3.64
3.58
3.47
3.28
2.99
2.59
2.11
1.57
1.00
0.43
-0.16
-0.76
-1.42
-2.21
-3.17
-4.34
-5.62
-6.89
-7.98
-8.78
-9.28
-9.52
-9.57
-9.42
-8.97
-8.09
-6.74
-5.01
-3.11
-1.31
0.22
1.40
2.28
2.95
3.48
3.94
4.29
4.52
4.62
4.62
4.59
4.59
4.67
4.84
5.06
5.26
5.41
5.48
5.51
5.52
5.51
5.48
5.37
5.15
4.81
4.38
3.93
3.49
3.08
2.66
2.19
1.59
0.80
-0.18
-1.33
-2.57
-3.81
-4.97
-6.00
-6.97
-7.97
-9.12
-10.52
-12.11
-13.72
-15.12
-16.06
-16.38
-16.03
-15.10
-13.67
-11.81
-9.58
-7.05
-4.32
-1.61
0.84
2.85
4.32
5.34
6.06
6.68
7.26
7.82
8.27
8.56
8.67
8.64
8.55
8.46
8.40
8.36
8.31
8.20
8.02
7.77
7.48
7.20
6.95
6.75
6.59
6.42
6.18
5.80
5.25
4.50
3.56
2.49
1.36
0.28
-0.67
-1.43
-2.00
-2.44
-2.83
-3.29
-3.90
-4.74
-5.86
-7.25
-8.80
-10.30
-11.49
-12.09
-11.94
-11.05
-9.57
-7.78
-5.96
-4.25
-2.67
-1.15
0.39
1.96
3.49
4.90
6.09
7.02
7.68
8.07
8.17
7.96
7.50
6.89
6.31
5.91
5.82
6.04
6.49
7.03
7.50
7.77
7.77
7.50
6.99
6.31
5.55
4.83
4.25
3.88
3.73
3.68
3.56
3.22
2.61
1.80
0.95
0.20
-0.42
-1.06
-1.98
-3.45
-5.57
-8.24
-11.13
-13.83
-15.95
-17.22
-17.54
-16.96
-15.62
-13.68
-11.36
-8.89
-6.49
-4.36
-2.59
-1.11
0.19
1.41
2.58
3.61
4.37
4.75
4.76
4.52
4.18
3.88
3.69
3.56
3.42
3.17
2.76
2.24
1.69
1.22
0.90
0.76
0.74
0.75
0.69
0.51
0.18
-0.29
-0.85
-1.42
-1.91
-2.27
-2.49
-2.61
-2.74
-2.95
-3.32
-3.89
-4.70
-5.75
-7.03
-8.39
-9.59
-10.31
-10.24
-9.21
-7.27
-4.66
-1.72
1.24
3.97
6.34
8.32
9.90
11.10
11.96
12.51
12.80
12.89
12.84
12.69
12.41
11.99
11.40
10.65
9.82
9.03
8.40
8.05
7.97
8.03
8.02
7.70
6.94
5.75
4.28
2.78
1.46
0.38
-0.50
-1.33
-2.26
-3.38
-4.68
-6.10
-7.52
-8.87
-10.08
-11.09
-11.90
-12.55
-13.18
-13.95
-14.94
-16.07
-17.09
-17.63
-17.38
-16.22
-14.25
-11.78
-9.17
-6.69
-4.50
-2.60
-0.88
0.77
2.47
4.25
6.04
7.68
8.94
9.56
9.39
8.44
6.98
5.49
4.49
4.42
5.45
7.44
10.00
12.62
14.87
16.46
17.30
17.42
16.90
15.82
14.27
12.37
10.27
8.13
6.04
4.08
2.26
0.62
-0.83
-2.10
-3.27
-4.48
-5.91
-7.73
-9.95
-12.45
-14.95
-17.07
-18.51
-19.06
-18.74
-17.71
-16.22
-14.48
-12.62
-10.71
-8.76
-6.82
-5.01
-3.38
-1.96
-0.67
0.59
1.85
3.00
3.89
4.42
4.63
4.72
4.95
5.49
6.30
7.18
7.88
8.21
8.16
7.79
7.22
6.51
5.65
4.65
3.59
2.57
1.75
1.19
0.85
0.63
0.35
-0.05
-0.58
-1.13
-1.57
-1.81
-1.81
-1.71
-1.71
-2.09
-3.10
-4.83
-7.16
-9.76
-12.16
-13.92
-14.79
-14.74
-13.95
-12.66
-11.04
-9.22
-7.28
-5.35
-3.59
-2.16
-1.13
-0.49
-0.09
0.19
0.43
0.64
0.80
0.93
1.05
1.19
1.32
1.34
1.13
0.63
-0.09
-0.86
-1.44
-1.68
-1.54
-1.12
-0.62
-0.24
-0.11
-0.23
-0.48
-0.69
-0.73
-0.56
-0.27
-0.02
-0.01
-0.33
-1.01
-1.99
-3.16
-4.39
-5.56
-6.53
-7.14
-7.22
-6.68
-5.52
-3.87
-1.97
-0.10
1.51
2.69
3.39
3.65
3.57
3.34
3.15
3.19
3.52
4.14
4.90
5.65
6.23
6.57
6.63
6.43
6.05
5.55
5.06
4.74
4.68
4.93
5.38
5.88
6.21
6.26
6.00
5.47
4.76
3.89
2.82
1.53
0.02
-1.59
-3.13
-4.41
-5.36
-6.02
-6.51
-7.05
-7.77
-8.74
-9.92
-11.17
-12.32
-13.17
-13.56
-13.40
-12.71
-11.57
-10.10
-8.45
-6.73
-5.01
-3.34
-1.73
-0.18
1.35
2.89
4.49
6.13
7.74
9.23
10.46
11.33
11.79
11.84
11.58
11.11
10.53
9.92
9.33
8.77
8.27
7.86
7.56
7.38
7.23
7.04
6.67
6.07
5.22
4.17
3.00
1.79
0.59
-0.58
-1.67
-2.68
-3.60
-4.45
-5.22
-5.91
-6.53
-7.09
-7.66
-8.31
-9.11
-10.02
-10.91
-11.54
-11.68
-11.21
-10.10
-8.45
-6.39
-4.04
-1.50
1.14
3.73
6.04
7.85
8.99
9.46
9.42
9.14
8.90
8.86
9.02
9.29
9.52
9.60
9.49
9.17
8.65
7.89
6.84
5.54
4.09
2.71
1.57
0.77
0.26
-0.14
-0.63
-1.38
-2.42
-3.66
-4.93
-6.03
-6.86
-7.39
-7.71
-7.98
-8.36
-8.97
-9.86
-11.04
-12.43
-13.93
-15.43
-16.81
-17.98
-18.89
-19.50
-19.80
-19.73
-19.26
-18.36
-17.06
-15.47
-13.76
-12.05
-10.37
-8.62
-6.65
-4.28
-1.41
1.96
5.78
9.90
14.14
18.26
22.00
25.05
27.21
28.37
28.55
27.94
26.74
25.17
23.45
21.72
20.11
18.78
17.82
17.30
17.19
17.37
17.63
17.78
17.64
17.11
16.16
14.83
13.22
11.42
9.54
7.66
5.79
3.95
2.11
0.28
-1.45
-2.93
-3.99
-4.46
-4.22
-3.30
-1.80
0.07
2.06
3.89
5.34
6.22
6.47
6.12
5.31
4.27
3.23
2.38
1.81
1.50
1.32
1.14
0.90
0.65
0.50
0.54
0.76
1.05
1.28
1.38
1.35
1.23
1.06
0.81
0.43
-0.10
-0.69
-1.21
-1.54
-1.66
-1.71
-1.89
-2.32
-3.01
-3.81
-4.54
-5.10
-5.47
-5.73
-6.02
-6.41
-6.98
-7.74
-8.65
-9.62
-10.47
-11.01
-11.01
-10.36
-9.04
-7.17
-5.00
-2.80
-0.82
0.75
1.82
2.40
2.57
2.46
2.20
1.88
1.54
1.18
0.75
0.23
-0.32
-0.82
-1.13
-1.19
-0.99
-0.69
-0.46
-0.46
-0.73
-1.16
-1.58
-1.84
-1.92
-1.92
-2.00
-2.24
-2.64
-3.12
-3.60
-4.02
-4.40
-4.76
-5.16
-5.59
-6.07
-6.58
-7.16
-7.80
-8.46
-9.04
-9.42
-9.49
-9.21
-8.61
-7.74
-6.65
-5.39
-3.98
-2.48
-0.94
0.54
1.89
3.03
3.90
4.47
4.74
4.77
4.63
4.46
4.34
4.34
4.41
4.51
4.58
4.59
4.57
4.54
4.51
4.44
4.27
3.94
3.44
2.84
2.21
1.64
1.19
0.83
0.50
0.10
-0.40
-1.01
-1.68
-2.39
-3.09
-3.76
-4.38
-4.93
-5.41
-5.89
-6.47
-7.26
-8.25
-9.32
-10.19
-10.61
-10.39
-9.54
-8.19
-6.57
-4.88
-3.31
-1.98
-0.95
-0.26
0.17
0.45
0.75
1.17
1.75
2.37
2.91
3.28
3.47
3.55
3.61
3.71
3.84
3.94
4.00
4.03
4.12
4.32
4.63
5.00
5.29
5.39
5.27
4.93
4.47
3.96
3.44
2.91
2.31
1.61
0.75
-0.25
-1.37
-2.55
-3.70
-4.79
-5.79
-6.73
-7.61
-8.42
-9.11
-9.57
-9.71
-9.43
-8.69
-7.53
-6.02
-4.30
-2.52
-0.84
0.66
1.96
3.11
4.14
5.08
5.90
6.56
6.98
7.19
7.22
7.20
7.20
7.24
7.29
7.29
7.21
7.04
6.82
6.56
6.23
5.79
5.21
4.48
3.66
2.89
2.29
1.87
1.58
1.22
0.63
-0.29
-1.51
-2.89
-4.24
-5.42
-6.36
-7.07
-7.62
-8.08
-8.51
-8.96
-9.49
-10.13
-10.87
-11.59
-12.10
-12.17
-11.63
-10.43
-8.67
-6.57
-4.38
-2.29
-0.43
1.16
2.46
3.49
4.23
4.70
4.92
4.97
4.92
4.84
4.78
4.72
4.62
4.47
4.28
4.12
4.05
4.07
4.16
4.27
4.32
4.32
4.26
4.14
3.94
3.61
3.10
2.42
1.61
0.78
0.00
-0.69
-1.30
-1.86
-2.40
-2.96
-3.54
-4.19
-4.93
-5.81
-6.89
-8.18
-9.66
-11.24
-12.78
-14.06
-14.88
-15.11
-14.75
-13.88
-12.67
-11.23
-9.64
-7.93
-6.13
-4.31
-2.57
-1.02
0.29
1.34
2.16
2.75
3.14
3.31
3.30
3.21
3.16
3.28
3.63
4.18
4.79
5.28
5.54
5.56
5.42
5.24
5.10
4.96
4.67
4.12
3.28
2.27
1.28
0.48
-0.08
-0.50
-0.95
-1.60
-2.46
-3.46
-4.44
-5.27
-5.95
-6.55
-7.20
-7.99
-8.95
-10.00
-10.99
-11.71
-11.96
-11.57
-10.51
-8.80
-6.61
-4.12
-1.52
1.06
3.51
5.75
7.70
9.26
10.37
11.03
11.30
11.32
11.17
10.92
10.54
10.04
9.40
8.70
8.07
7.61
7.40
7.46
7.69
7.93
7.99
7.74
7.12
6.22
5.21
4.29
3.58
3.07
2.66
2.20
1.60
0.80
-0.18
-1.28
-2.43
-3.56
-4.57
-5.37
-5.97
-6.43
-6.92
-7.64
-8.69
-9.99
-11.31
-12.29
-12.65
-12.25
-11.14
-9.52
-7.63
-5.65
-3.65
-1.64
0.39
2.37
4.18
5.64
6.65
7.18
7.33
7.25
7.08
6.90
6.73
6.55
6.39
6.33
6.43
6.72
7.08
7.32
7.27
6.87
6.20
5.51
5.00
4.78
4.83
4.98
5.06
4.96
4.64
4.14
3.49
2.74
1.95
1.15
0.38
-0.33
-0.97
-1.56
-2.14
-2.75
-3.44
-4.22
-5.06
-5.85
-6.45
-6.66
-6.35
-5.48
-4.10
-2.33
-0.31
1.84
4.00
6.03
7.77
9.07
9.84
10.12
10.00
9.66
9.18
8.60
7.90
7.10
6.25
5.51
5.01
4.83
4.96
5.29
5.68
6.04
6.30
6.43
6.41
6.19
5.76
5.13
4.38
3.60
2.86
2.16
1.43
0.58
-0.46
-1.72
-3.16
-4.73
-6.37
-8.00
-9.50
-10.71
-11.46
-11.63
-11.20
-10.24
-8.93
-7.44
-5.94
-4.53
-3.25
-2.08
-0.98
0.06
1.01
1.78
2.23
2.27
1.93
1.36
0.82
0.55
0.62
0.94
1.34
1.63
1.73
1.69
1.65
1.73
1.97
2.28
2.53
2.54
2.19
1.48
0.51
-0.53
-1.47
-2.21
-2.79
-3.34
-4.01
-4.92
-6.09
-7.48
-9.06
-10.78
-12.56
-14.21
-15.45
-15.93
-15.39
-13.79
-11.36
-8.52
-5.69
-3.17
-1.09
0.60
1.98
3.14
4.09
4.85
5.41
5.82
6.14
6.43
6.69
6.91
7.05
7.03
6.85
6.51
6.10
5.73
5.49
5.43
5.46
5.44
5.16
4.51
3.49
2.21
0.88
-0.33
-1.35
-2.20
-3.02
-3.94
-5.02
-6.23
-7.48
-8.67
-9.76
-10.81
-11.89
-13.00
-14.01
-14.65
-14.65
-13.77
-11.99
-9.47
-6.50
-3.45
-0.61
1.84
3.81
5.33
6.45
7.25
7.80
8.14
8.37
8.53
8.72
8.94
9.17
9.30
9.18
8.74
8.00
7.12
6.29
5.69
5.38
5.29
5.23
5.02
4.56
3.85
2.99
2.13
1.35
0.63
-0.06
-0.82
-1.70
-2.68
-3.75
-4.88
-6.04
-7.20
-8.29
-9.18
-9.76
-9.94
-9.63
-8.82
-7.52
-5.76
-3.64
-1.33
0.92
2.90
4.43
5.49
6.15
6.55
6.80
6.95
7.02
7.00
6.93
6.85
6.80
6.74
6.66
6.48
6.20
5.84
5.44
5.05
4.68
4.26
3.74
3.05
2.17
1.15
0.08
-0.96
-1.90
-2.73
-3.52
-4.37
-5.39
-6.66
-8.17
-9.79
-11.30
-12.43
-12.97
-12.83
-12.05
-10.75
-9.11
-7.28
-5.36
-3.43
-1.51
0.37
2.19
3.91
5.50
6.91
8.07
8.92
9.43
9.59
9.45
9.07
8.51
7.85
7.19
6.58
6.06
5.62
5.22
4.80
4.32
3.74
3.05
2.24
1.30
0.23
-0.94
-2.14
-3.29
-4.38
-5.46
-6.63
-8.02
-9.63
-11.36
-12.93
-14.01
-14.32
-13.73
-12.34
-10.38
-8.15
-5.92
-3.79
-1.79
0.11
1.96
3.72
5.33
6.71
7.82
8.64
9.17
9.46
9.53
9.40
9.10
8.61
7.95
7.16
6.35
5.63
5.10
4.79
4.61
4.40
3.98
3.28
2.35
1.32
0.34
-0.54
-1.35
-2.20
-3.17
-4.32
-5.60
-6.97
-8.33
-9.64
-10.84
-11.88
-12.64
-12.97
-12.68
-11.68
-9.95
-7.67
-5.11
-2.58
-0.30
1.59
3.12
4.39
5.49
6.51
7.44
8.25
8.85
9.19
9.24
9.03
8.63
8.14
7.65
7.18
6.71
6.23
5.73
5.23
4.79
4.41
4.03
3.52
2.75
1.67
0.39
-0.89
-1.97
-2.70
-3.14
-3.48
-3.98
-4.83
-6.11
-7.75
-9.55
-11.30
-12.73
-13.61
-13.73
-13.00
-11.44
-9.18
-6.48
-3.66
-1.00
1.29
3.09
4.42
5.38
6.11
6.74
7.34
7.90
8.36
8.67
8.79
8.73
8.55
8.29
7.98
7.60
7.17
6.73
6.32
5.98
5.68
5.40
5.08
4.70
4.26
3.78
3.27
2.71
2.05
1.24
0.23
-0.93
-2.17
-3.39
-4.49
-5.50
-6.48
-7.57
-8.84
-10.26
-11.67
-12.84
-13.53
-13.61
-13.00
-11.71
-9.78
-7.34
-4.60
-1.85
0.59
2.50
3.86
4.81
5.56
6.24
6.83
7.18
7.20
6.89
6.38
5.91
5.60
5.49
5.50
5.49
5.42
5.29
5.18
5.13
5.12
5.08
4.93
4.64
4.21
3.67
3.02
2.23
1.25
0.11
-1.09
-2.21
-3.08
-3.70
-4.15
-4.68
-5.49
-6.68
-8.16
-9.72
-11.08
-12.06
-12.55
-12.53
-11.99
-10.98
-9.53
-7.76
-5.83
-3.86
-1.93
0.00
1.98
3.98
5.86
7.40
8.39
8.83
8.89
8.89
9.09
9.56
10.17
10.66
10.84
10.69
10.29
9.79
9.27
8.67
7.89
6.84
5.51
4.00
2.51
1.20
0.18
-0.57
-1.12
-1.62
-2.15
-2.79
-3.53
-4.31
-5.06
-5.68
-6.15
-6.48
-6.73
-6.97
-7.25
-7.62
-8.11
-8.75
-9.51
-10.30
-10.94
-11.19
-10.86
-9.85
-8.17
-6.02
-3.65
-1.31
0.80
2.59
4.02
5.14
5.97
6.55
6.90
7.08
7.14
7.14
7.10
6.98
6.67
6.07
5.16
4.08
3.02
2.24
1.84
1.78
1.82
1.72
1.27
0.43
-0.71
-1.96
-3.17
-4.23
-5.12
-5.85
-6.49
-7.08
-7.68
-8.28
-8.80
-9.14
-9.19
-8.93
-8.45
-7.94
-7.65
-7.78
-8.36
-9.31
-10.36
-11.22
-11.62
-11.42
-10.57
-9.16
-7.31
-5.13
-2.71
-0.11
2.56
5.12
7.32
8.93
9.80
10.01
9.75
9.33
8.98
8.79
8.66
8.43
7.96
7.25
6.44
5.75
5.38
5.41
5.76
6.27
6.74
6.98
6.85
6.27
5.22
3.78
2.14
0.55
-0.72
-1.50
-1.75
-1.65
-1.46
-1.43
-1.69
-2.24
-2.93
-3.62
-4.21
-4.70
-5.19
-5.77
-6.53
-7.49
-8.54
-9.54
-10.28
-10.58
-10.30
-9.43
-8.04
-6.27
-4.33
-2.37
-0.51
1.21
2.80
4.24
5.54
6.66
7.58
8.26
8.71
8.93
8.96
8.83
8.58
8.27
7.95
7.62
7.29
6.99
6.78
6.73
6.87
7.16
7.47
7.63
7.49
6.99
6.18
5.16
4.09
3.09
2.21
1.44
0.71
-0.06
-0.89
-1.76
-2.55
-3.18
-3.63
-3.98
-4.43
-5.12
-6.15
-7.45
-8.92
-10.42
-11.88
-13.22
-14.30
-14.94
-14.88
-13.98
-12.25
-9.87
-7.18
-4.52
-2.10
-0.01
1.79
3.36
4.73
5.93
6.89
7.56
7.92
7.98
7.84
7.63
7.46
7.39
7.41
7.42
7.35
7.16
6.91
6.70
6.58
6.57
6.59
6.56
6.41
6.16
5.86
5.52
5.06
4.41
3.50
2.39
1.24
0.22
-0.55
-1.11
-1.60
-2.19
-2.99
-3.97
-5.03
-6.08
-7.10
-8.17
-9.37
-10.71
-12.06
-13.18
-13.80
-13.72
-12.92
-11.50
-9.65
-7.56
-5.36
-3.10
-0.86
1.26
3.14
4.64
5.72
6.42
6.85
7.14
7.34
7.45
7.40
7.15
6.68
6.08
5.47
4.98
4.72
4.75
5.06
5.55
6.07
6.43
6.49
6.17
5.53
4.71
3.88
3.15
2.56
2.07
1.63
1.22
0.81
0.38
-0.11
-0.72
-1.51
-2.43
-3.40
-4.33
-5.13
-5.85
-6.60
-7.54
-8.78
-10.34
-12.08
-13.78
-15.15
-15.97
-16.08
-15.45
-14.12
-12.17
-9.73
-6.95
-4.05
-1.31
1.00
2.69
3.79
4.42
4.82
5.19
5.59
5.98
6.26
6.36
6.25
5.98
5.60
5.18
4.76
4.35
3.97
3.60
3.22
2.83
2.43
2.08
1.84
1.73
1.70
1.61
1.32
0.74
-0.10
-1.05
-1.97
-2.77
-3.46
-4.16
-4.93
-5.82
-6.78
-7.75
-8.64
-9.39
-9.93
-10.20
-10.09
-9.54
-8.53
-7.10
-5.31
-3.24
-0.99
1.33
3.55
5.49
7.00
7.99
8.47
8.52
8.27
7.84
7.35
6.91
6.58
6.39
6.30
6.24
6.13
5.90
5.54
5.07
4.55
4.08
3.72
3.48
3.30
3.09
2.73
2.13
1.28
0.25
-0.85
-1.93
-2.93
-3.83
-4.66
-5.43
-6.13
-6.75
-7.28
-7.75
-8.28
-9.00
-10.04
-11.41
-12.98
-14.44
-15.40
-15.53
-14.72
-13.06
-10.82
-8.30
-5.75
-3.26
-0.89
1.34
3.33
4.98
6.21
7.01
7.50
7.83
8.14
8.46
8.73
8.83
8.64
8.13
7.42
6.70
6.18
5.99
6.14
6.50
6.88
7.12
7.13
6.90
6.52
6.06
5.55
4.95
4.20
3.24
2.10
0.85
-0.37
-1.44
-2.29
-2.93
-3.42
-3.82
-4.19
-4.61
-5.16
-5.93
-7.05
-8.56
-10.38
-12.31
-14.01
-15.18
-15.57
-15.11
-13.85
-11.94
-9.51
-6.69
-3.63
-0.51
2.39
4.82
6.58
7.66
8.21
8.48
8.67
8.89
9.10
9.20
9.13
8.88
8.52
8.11
7.67
7.21
6.75
6.31
5.99
5.84
5.86
5.95
5.97
5.82
5.49
5.05
4.60
4.19
3.77
3.23
2.48
1.50
0.38
-0.78
-1.91
-2.98
-4.01
-5.00
-5.91
-6.70
-7.37
-8.00
-8.73
-9.67
-10.81
-12.02
-13.04
-13.61
-13.53
-12.76
-11.32
-9.37
-7.05
-4.55
-2.08
0.17
2.07
3.54
4.58
5.29
5.72
5.92
5.88
5.59
5.03
4.24
3.28
2.27
1.29
0.43
-0.27
-0.77
-1.10
-1.28
-1.38
-1.46
-1.60
-1.89
-2.43
-3.27
-4.42
-5.83
-7.34
-8.78
-10.02
-11.01
-11.82
-12.65
-13.67
-14.99
-16.60
-18.33
-19.92
-21.10
-21.66
-21.49
-20.61
-19.09
-17.02
-14.49
-11.58
-8.31
-4.70
-0.80
3.31
7.48
11.52
15.20
18.32
20.80
22.64
23.94
24.82
25.38
25.65
25.66
25.40
24.93
24.33
23.67
22.96
22.19
21.25
20.06
18.60
16.91
15.10
13.28
11.55
10.01
8.69
7.61
6.73
5.97
5.18
4.20
2.89
1.22
-0.78
-2.96
-5.18
-7.28
-9.14
-10.74
-12.07
-13.16
-14.04
-14.74
-15.23
-15.47
-15.40
-14.95
-14.00
-12.42
-10.07
-6.88
-2.96
1.34
5.48
8.90
11.22
12.37
12.58
12.22
11.62
10.92
10.11
9.05
7.71
6.13
4.51
3.08
2.04
1.49
1.45
1.82
2.46
3.19
3.84
4.28
4.42
4.29
3.97
3.56
3.14
2.72
2.20
1.43
0.33
-1.13
-2.81
-4.50
-6.02
-7.28
-8.29
-9.21
-10.17
-11.30
-12.58
-13.92
-15.07
-15.80
-15.85
-15.07
-13.47
-11.16
-8.39
-5.46
-2.64
-0.08
2.10
3.89
5.28
6.26
6.85
7.09
7.08
6.97
6.90
6.95
7.09
7.26
7.35
7.32
7.16
6.92
6.61
6.25
5.82
5.34
4.84
4.38
3.99
3.65
3.32
2.88
2.29
1.55
0.69
-0.24
-1.21
-2.19
-3.21
-4.29
-5.43
-6.65
-7.94
-9.27
-10.60
-11.85
-12.89
-13.58
-13.73
-13.20
-11.88
-9.81
-7.15
-4.19
-1.25
1.42
3.65
5.38
6.65
7.51
7.99
8.12
7.95
7.54
7.01
6.47
6.00
5.59
5.18
4.70
4.11
3.44
2.77
2.16
1.68
1.29
0.94
0.58
0.21
-0.14
-0.45
-0.74
-1.11
-1.68
-2.51
-3.58
-4.70
-5.69
-6.42
-6.93
-7.36
-7.90
-8.70
-9.73
-10.81
-11.67
-12.04
-11.74
-10.71
-9.03
-6.83
-4.31
-1.63
1.00
3.41
5.43
6.95
7.96
8.54
8.85
9.04
9.20
9.33
9.39
9.30
9.07
8.74
8.36
8.00
7.67
7.34
6.96
6.49
5.91
5.19
4.37
3.44
2.43
1.39
0.33
-0.71
-1.70
-2.60
-3.38
-4.04
-4.60
-5.12
-5.68
-6.35
-7.11
-7.89
-8.62
-9.26
-9.87
-10.53
-11.26
-11.93
-12.30
-12.10
-11.15
-9.45
-7.20
-4.66
-2.09
0.37
2.68
4.80
6.65
8.11
9.10
9.62
9.79
9.79
9.74
9.67
9.50
9.15
8.61
7.96
7.34
6.87
6.62
6.59
6.71
6.90
7.04
7.01
6.73
6.16
5.37
4.49
3.66
2.96
2.36
1.79
1.14
0.38
-0.48
-1.38
-2.26
-3.09
-3.87
-4.64
-5.46
-6.37
-7.45
-8.71
-10.10
-11.52
-12.84
-13.97
-14.82
-15.33
-15.47
-15.15
-14.31
-12.86
-10.80
-8.21
-5.24
-2.14
0.83
3.42
5.49
6.96
7.89
8.41
8.61
8.58
8.34
7.93
7.37
6.77
6.22
5.78
5.44
5.17
4.92
4.68
4.47
4.31
4.22
4.17
4.13
4.03
3.82
3.48
3.02
2.45
1.81
1.09
0.28
-0.63
-1.67
-2.78
-3.87
-4.81
-5.56
-6.17
-6.81
-7.67
-8.84
-10.28
-11.77
-13.00
-13.70
-13.71
-12.98
-11.57
-9.58
-7.17
-4.51
-1.82
0.65
2.70
4.19
5.11
5.56
5.71
5.79
5.94
6.23
6.61
6.95
7.15
7.15
7.00
6.75
6.47
6.15
5.77
5.37
5.02
4.83
4.89
5.13
5.39
5.46
5.18
4.55
3.69
2.77
1.95
1.26
0.65
0.03
-0.69
-1.51
-2.40
-3.26
-3.98
-4.51
-4.86
-5.14
-5.52
-6.22
-7.36
-8.93
-10.68
-12.23
-13.18
-13.20
-12.18
-10.23
-7.66
-4.83
-2.10
0.30
2.27
3.86
5.12
6.12
6.88
7.34
7.49
7.37
7.11
6.89
6.85
7.01
7.22
7.31
7.12
6.68
6.12
5.64
5.33
5.17
5.01
4.73
4.26
3.70
3.14
2.68
2.33
2.04
1.72
1.36
0.95
0.53
0.09
-0.43
-1.10
-1.95
-2.96
-4.04
-5.12
-6.12
-7.06
-7.96
-8.87
-9.83
-10.83
-11.80
-12.62
-13.16
-13.28
-12.85
-11.82
-10.22
-8.19
-5.89
-3.51
-1.21
0.90
2.76
4.30
5.46
6.20
6.53
6.52
6.33
6.13
6.03
6.06
6.15
6.21
6.20
6.10
5.94
5.77
5.56
5.31
5.00
4.66
4.32
4.01
3.76
3.54
3.30
3.00
2.59
2.03
1.31
0.44
-0.54
-1.56
-2.51
-3.31
-3.92
-4.38
-4.79
-5.24
-5.82
-6.58
-7.52
-8.60
-9.78
-10.95
-11.95
-12.62
-12.78
-12.32
-11.22
-9.56
-7.45
-5.07
-2.64
-0.36
1.61
3.16
4.30
5.13
5.83
6.49
7.11
7.57
7.71
7.44
6.82
6.06
5.39
4.98
4.82
4.80
4.75
4.59
4.34
4.14
4.05
4.06
4.04
3.85
3.38
2.70
1.91
1.17
0.57
0.09
-0.36
-0.90
-1.62
-2.50
-3.49
-4.52
-5.54
-6.56
-7.63
-8.75
-9.91
-11.03
-12.00
-12.76
-13.27
-13.50
-13.44
-13.01
-12.09
-10.61
-8.57
-6.11
-3.47
-0.94
1.27
3.05
4.39
5.40
6.16
6.72
7.07
7.18
7.03
6.66
6.22
5.87
5.74
5.82
6.01
6.11
5.99
5.63
5.09
4.47
3.80
3.05
2.16
1.10
-0.04
-1.13
-2.00
-2.53
-2.72
-2.69
-2.61
-2.69
-3.05
-3.72
-4.66
-5.74
-6.81
-7.75
-8.52
-9.11
-9.62
-10.15
-10.83
-11.76
-12.97
-14.38
-15.77
-16.78
-17.06
-16.35
-14.55
-11.77
-8.28
-4.40
-0.52
3.02
5.95
8.15
9.64
10.58
11.21
11.74
12.29
12.84
13.29
13.56
13.59
13.41
13.09
12.72
12.34
11.95
11.52
11.02
10.45
9.77
9.02
8.20
7.36
6.53
5.72
4.93
4.15
3.35
2.51
1.62
0.70
-0.23
-1.12
-1.91
-2.55
-3.01
-3.28
-3.40
-3.46
-3.60
-3.93
-4.57
-5.56
-6.87
-8.44
-10.10
-11.67
-12.92
-13.68
-13.82
-13.28
-12.09
-10.34
-8.20
-5.82
-3.40
-1.13
0.84
2.42
3.63
4.55
5.36
6.17
7.04
7.92
8.71
9.28
9.57
9.61
9.47
9.27
9.16
9.22
9.47
9.84
10.18
10.32
10.11
9.52
8.63
7.63
6.69
5.94
5.40
5.00
4.64
4.25
3.79
3.25
2.59
1.83
0.97
0.02
-0.96
-1.90
-2.77
-3.60
-4.47
-5.56
-6.98
-8.79
-10.87
-12.97
-14.71
-15.76
-15.89
-15.04
-13.35
-11.04
-8.36
-5.57
-2.84
-0.33
1.86
3.68
5.11
6.21
7.06
7.76
8.35
8.87
9.31
9.68
9.97
10.16
10.21
10.08
9.72
9.13
8.35
7.43
6.49
5.64
5.01
4.65
4.58
4.70
4.84
4.79
4.39
3.65
2.68
1.71
0.94
0.46
0.21
0.05
-0.18
-0.56
-1.10
-1.79
-2.62
-3.58
-4.66
-5.85
-7.05
-8.17
-9.13
-9.85
-10.27
-10.32
-9.92
-9.03
-7.68
-5.98
-4.05
-2.02
-0.02
1.86
3.53
4.89
5.85
6.35
6.40
6.09
5.54
4.92
4.37
4.00
3.87
3.95
4.15
4.33
4.41
4.39
4.39
4.52
4.86
5.34
5.79
6.00
5.84
5.33
4.57
3.74
2.94
2.15
1.27
0.17
-1.21
-2.86
-4.64
-6.35
-7.78
-8.80
-9.39
-9.64
-9.76
-9.97
-10.43
-11.17
-12.08
-12.98
-13.64
-13.89
-13.61
-12.78
-11.41
-9.54
-7.28
-4.81
-2.33
-0.08
1.75
3.06
3.89
4.36
4.62
4.82
5.02
5.23
5.40
5.49
5.52
5.51
5.48
5.43
5.36
5.26
5.19
5.22
5.39
5.68
5.96
6.01
5.64
4.79
3.52
2.08
0.74
-0.28
-0.91
-1.21
-1.34
-1.44
-1.58
-1.73
-1.84
-1.87
-1.90
-2.12
-2.71
-3.81
-5.39
-7.30
-9.30
-11.19
-12.79
-13.96
-14.52
-14.30
-13.14
-10.99
-7.98
-4.40
-0.64
2.92
6.01
8.47
10.28
11.51
12.27
12.67
12.82
12.74
12.44
11.90
11.10
10.12
9.04
7.98
7.01
6.12
5.30
4.55
3.87
3.28
2.76
2.30
1.84
1.37
0.89
0.41
-0.09
-0.64
-1.28
-2.02
-2.80
-3.52
-4.10
-4.52
-4.82
-5.04
-5.24
-5.48
-5.80
-6.29
-7.01
-8.01
-9.22
-10.49
-11.58
-12.23
-12.26
-11.58
-10.23
-8.37
-6.19
-3.90
-1.68
0.37
2.17
3.70
4.93
5.86
6.47
6.77
6.78
6.57
6.22
5.83
5.48
5.21
4.98
4.77
4.57
4.37
4.24
4.17
4.16
4.14
4.04
3.85
3.56
3.20
2.77
2.22
1.49
0.55
-0.54
-1.66
-2.69
-3.56
-4.31
-5.01
-5.77
-6.68
-7.75
-8.95
-10.24
-11.51
-12.67
-13.56
-13.99
-13.76
-12.71
-10.81
-8.22
-5.23
-2.24
0.39
2.46
3.91
4.87
5.52
6.01
6.38
6.59
6.62
6.44
6.14
5.83
5.63
5.59
5.66
5.75
5.74
5.56
5.23
4.86
4.57
4.43
4.40
4.37
4.17
3.69
2.90
1.91
0.89
-0.02
-0.77
-1.39
-1.97
-2.59
-3.29
-4.11
-5.02
-6.04
-7.19
-8.47
-9.86
-11.27
-12.57
-13.63
-14.34
-14.62
-14.43
-13.72
-12.44
-10.57
-8.16
-5.38
-2.52
0.12
2.25
3.78
4.79
5.47
5.99
6.46
6.84
7.12
7.27
7.38
7.52
7.72
7.89
7.89
7.60
7.02
6.30
5.64
5.21
5.05
5.08
5.12
5.04
4.76
4.25
3.53
2.65
1.62
0.51
-0.63
-1.76
-2.85
-3.92
-4.99
-6.09
-7.18
-8.25
-9.26
-10.31
-11.53
-13.08
-15.03
-17.34
-19.75
-21.96
-23.67
-24.68
-24.92
-24.46
-23.39
-21.89
-20.09
-18.17
-16.24
-14.35
-12.48
-10.57
-8.53
-6.25
-3.67
-0.75
2.45
5.82
9.17
12.33
15.17
17.62
19.69
21.40
22.79
23.86
24.63
25.08
25.25
25.14
24.76
24.08
23.01
21.53
19.68
17.59
15.50
13.64
12.15
11.04
10.14
9.25
8.16
6.81
5.25
3.63
2.12
0.84
-0.25
-1.29
-2.45
-3.86
-5.52
-7.31
-9.03
-10.40
-11.24
-11.40
-10.84
-9.59
-7.73
-5.38
-2.72
0.04
2.65
4.87
6.54
7.61
8.12
8.16
7.89
7.44
6.95
6.49
6.13
5.87
5.66
5.46
5.22
4.92
4.59
4.27
4.02
3.84
3.69
3.52
3.26
2.85
2.29
1.56
0.71
-0.19
-1.07
-1.86
-2.51
-3.05
-3.51
-3.98
-4.51
-5.14
-5.89
-6.81
-7.97
-9.44
-11.16
-12.97
-14.56
-15.58
-15.74
-14.94
-13.27
-10.96
-8.32
-5.63
-3.07
-0.76
1.26
3.00
4.46
5.65
6.58
7.27
7.74
8.02
8.14
8.15
8.05
7.85
7.58
7.24
6.89
6.55
6.22
5.92
5.67
5.48
5.36
5.28
5.18
5.01
4.73
4.36
3.95
3.49
2.97
2.34
1.57
0.68
-0.25
-1.17
-2.06
-2.93
-3.79
-4.63
-5.43
-6.18
-6.97
-7.91
-9.14
-10.68
-12.41
-14.09
-15.38
-15.95
-15.61
-14.34
-12.31
-9.81
-7.16
-4.62
-2.33
-0.29
1.55
3.20
4.67
5.92
6.94
7.78
8.48
9.05
9.46
9.60
9.43
8.96
8.30
7.63
7.10
6.80
6.73
6.80
6.91
6.95
6.89
6.74
6.53
6.30
6.01
5.61
5.08
4.41
3.70
3.04
2.50
2.06
1.60
1.00
0.16
-0.89
-2.03
-3.13
-4.08
-4.86
-5.54
-6.22
-7.01
-8.00
-9.22
-10.60
-12.03
-13.27
-14.05
-14.15
-13.41
-11.88
-9.74
-7.25
-4.67
-2.17
0.12
2.13
3.82
5.14
6.10
6.76
7.18
7.44
7.58
7.59
7.44
7.07
6.51
5.82
5.16
4.70
4.55
4.72
5.12
5.58
5.93
6.08
6.05
5.96
5.92
5.98
6.09
6.12
5.99
5.63
5.04
4.26
3.30
2.16
0.83
-0.68
-2.32
-3.98
-5.57
-7.01
-8.32
-9.58
-10.85
-12.15
-13.40
-14.41
-14.98
-14.94
-14.19
-12.80
-10.90
-8.67
-6.31
-3.88
-1.45
0.95
3.21
5.19
6.66
7.49
7.65
7.29
6.68
6.07
5.59
5.25
4.97
4.63
4.23
3.84
3.55
3.43
3.48
3.60
3.73
3.78
3.72
3.60
3.47
3.36
3.28
3.20
3.03
2.64
1.97
1.01
-0.13
-1.31
-2.40
-3.37
-4.26
-5.14
-6.03
-6.92
-7.76
-8.58
-9.49
-10.60
-11.99
-13.54
-14.98
-15.91
-16.00
-15.09
-13.27
-10.80
-8.00
-5.18
-2.55
-0.20
1.83
3.53
4.88
5.91
6.62
7.07
7.38
7.65
7.95
8.28
8.57
8.68
8.54
8.16
7.64
7.13
6.78
6.61
6.62
6.71
6.83
6.88
6.81
6.55
6.05
5.30
4.42
3.56
2.90
2.56
2.46
2.40
2.14
1.51
0.49
-0.75
-2.00
-3.08
-3.95
-4.67
-5.41
-6.30
-7.39
-8.64
-9.93
-11.10
-12.01
-12.55
-12.63
-12.20
-11.22
-9.69
-7.64
-5.20
-2.54
0.09
2.45
4.35
5.75
6.69
7.29
7.65
7.81
7.77
7.52
7.09
6.56
5.98
5.41
4.88
4.43
4.10
3.95
3.99
4.16
4.34
4.38
4.17
3.69
3.01
2.29
1.67
1.26
1.05
0.92
0.68
0.19
-0.63
-1.67
-2.76
-3.69
-4.34
-4.75
-5.08
-5.53
-6.24
-7.28
-8.56
-9.90
-11.12
-12.00
-12.41
-12.25
-11.54
-10.31
-8.65
-6.68
-4.53
-2.30
-0.09
1.96
3.74
5.15
6.13
6.69
6.94
7.02
7.05
7.09
7.14
7.12
6.97
6.68
6.28
5.87
5.51
5.24
5.06
4.91
4.77
4.59
4.38
4.11
3.77
3.31
2.71
2.01
1.26
0.53
-0.12
-0.72
-1.30
-1.95
-2.71
-3.57
-4.49
-5.40
-6.27
-7.08
-7.90
-8.77
-9.75
-10.90
-12.21
-13.64
-15.01
-16.10
-16.63
-16.38
-15.25
-13.28
-10.65
-7.64
-4.55
-1.62
0.94
3.04
4.66
5.85
6.71
7.34
7.80
8.13
8.32
8.38
8.34
8.25
8.14
8.00
7.82
7.58
7.30
7.03
6.81
6.62
6.38
5.97
5.36
4.55
3.66
2.83
2.14
1.58
1.07
0.55
-0.03
-0.64
-1.26
-1.88
-2.48
-3.06
-3.55
-3.92
-4.14
-4.27
-4.47
-4.89
-5.67
-6.87
-8.43
-10.22
-12.01
-13.59
-14.73
-15.27
-15.12
-14.24
-12.71
-10.63
-8.19
-5.56
-2.92
-0.44
1.79
3.72
5.36
6.77
7.98
8.98
9.71
10.13
10.25
10.17
10.02
9.87
9.76
9.62
9.40
9.08
8.70
8.34
8.06
7.83
7.59
7.27
6.88
6.52
6.30
6.25
6.30
6.28
6.03
5.47
4.65
3.72
2.84
2.05
1.31
0.50
-0.50
-1.70
-3.08
-4.55
-6.09
-7.70
-9.37
-11.07
-12.68
-13.99
-14.78
-14.87
-14.22
-12.87
-10.97
-8.68
-6.18
-3.63
-1.16
1.13
3.17
4.93
6.33
7.35
7.95
8.15
8.03
7.70
7.26
6.77
6.25
5.68
5.08
4.48
3.99
3.68
3.62
3.77
4.01
4.17
4.09
3.70
3.04
2.20
1.35
0.60
0.02
-0.42
-0.81
-1.24
-1.76
-2.37
-3.02
-3.67
-4.30
-4.98
-5.84
-7.01
-8.58
-10.53
-12.67
-14.67
-16.19
-16.92
-16.68
-15.52
-13.57
-11.07
-8.23
-5.22
-2.20
0.68
3.20
5.20
6.55
7.27
7.52
7.56
7.61
7.78
8.04
8.29
8.45
8.51
8.54
8.59
8.67
8.72
8.65
8.48
8.27
8.11
8.06
8.09
8.07
7.90
7.46
6.73
5.73
4.53
3.23
1.99
0.94
0.15
-0.44
-0.99
-1.71
-2.74
-4.08
-5.57
-7.02
-8.26
-9.27
-10.18
-11.11
-12.18
-13.37
-14.55
-15.51
-16.05
-16.00
-15.24
-13.77
-11.62
-8.93
-5.88
-2.74
0.26
2.88
4.97
6.47
7.42
7.98
8.32
8.61
8.94
9.31
9.62
9.71
9.44
8.79
7.86
6.85
5.96
5.33
4.97
4.79
4.69
4.59
4.46
4.33
4.16
3.91
3.45
2.71
1.69
0.51
-0.64
-1.60
-2.27
-2.67
-2.90
-3.08
-3.29
-3.60
-4.04
-4.67
-5.55
-6.71
-8.11
-9.57
-10.82
-11.56
-11.56
-10.72
-9.11
-6.94
-4.50
-2.07
0.15
2.04
3.56
4.76
5.67
6.34
6.82
7.12
7.27
7.27
7.13
6.86
6.50
6.03
5.50
4.90
4.22
3.47
2.70
1.95
1.27
0.70
0.23
-0.20
-0.68
-1.24
-1.86
-2.53
-3.20
-3.92
-4.74
-5.74
-6.89
-8.11
-9.28
-10.30
-11.16
-11.93
-12.74
-13.70
-14.88
-16.23
-17.59
-18.75
-19.47
-19.59
-19.03
-17.81
-16.00
-13.64
-10.79
-7.52
-3.96
-0.36
3.02
5.95
8.33
10.17
11.61
12.73
13.55
14.04
14.19
14.03
13.67
13.20
12.65
11.98
11.17
10.20
9.21
8.34
7.74
7.43
7.32
7.27
7.18
7.05
6.95
6.93
6.97
6.97
6.77
6.24
5.31
4.00
2.35
0.49
-1.42
-3.19
-4.63
-5.69
-6.48
-7.28
-8.46
-10.30
-12.86
-15.97
-19.23
-22.14
-24.26
-25.25
-25.02
-23.69
-21.62
-19.19
-16.80
-14.63
-12.69
-10.86
-9.00
-7.09
-5.26
-3.75
-2.88
-2.88
-3.85
-5.57
-7.43
-8.41
-7.36
-3.32
4.04
14.24
26.09
37.99
48.40
56.14
60.60
61.65
59.59
55.02
48.76
41.71
34.70
28.31
22.73
17.84
13.27
8.61
3.61
-1.72
-6.99
-11.62
-14.93
-16.48
-16.26
-14.70
-12.57
-10.63
-9.40
-9.00
-9.15
-9.43
-9.45
-8.96
-7.90
-6.34
-4.37
-2.11
0.30
2.66
4.74
6.28
7.09
7.11
6.47
5.43
4.35
3.51
3.08
3.03
3.22
3.43
3.47
3.24
2.78
2.20
1.73
1.53
1.68
2.11
2.61
2.89
2.70
1.93
0.60
-1.13
-3.06
-4.95
-6.63
-7.92
-8.66
-8.77
-8.26
-7.24
-5.97
-4.74
-3.82
-3.41
-3.58
-4.30
-5.43
-6.77
-8.06
-9.03
-9.47
-9.26
-8.37
-6.92
-5.10
-3.15
-1.27
0.35
1.66
2.68
3.48
4.13
4.65
5.02
5.20
5.16
4.97
4.72
4.54
4.48
4.50
4.53
4.48
4.33
4.11
3.89
3.70
3.55
3.41
3.23
3.01
2.76
2.51
2.29
2.09
1.92
1.75
1.58
1.34
0.97
0.39
-0.43
-1.42
-2.44
-3.33
-3.98
-4.38
-4.64
-4.91
-5.33
-5.99
-6.96
-8.21
-9.62
-10.99
-11.99
-12.33
-11.77
-10.29
-8.07
-5.48
-2.91
-0.70
1.01
2.25
3.14
3.80
4.33
4.77
5.12
5.44
5.76
6.11
6.47
6.72
6.73
6.40
5.73
4.85
3.98
3.32
2.97
2.88
2.88
2.80
2.52
2.04
1.47
0.96
0.60
0.40
0.26
0.07
-0.28
-0.83
-1.52
-2.28
-3.06
-3.82
-4.57
-5.34
-6.16
-7.03
-7.94
-8.88
-9.85
-10.90
-11.99
-13.00
-13.71
-13.86
-13.26
-11.87
-9.86
-7.52
-5.13
-2.89
-0.87
0.90
2.40
3.61
4.52
5.14
5.56
5.82
5.97
5.97
5.78
5.44
5.02
4.66
4.50
4.57
4.79
5.05
5.21
5.19
4.97
4.55
3.97
3.29
2.55
1.86
1.26
0.78
0.39
0.01
-0.43
-0.99
-1.67
-2.44
-3.26
-4.09
-4.92
-5.74
-6.56
-7.40
-8.34
-9.38
-10.50
-11.57
-12.37
-12.69
-12.34
-11.28
-9.61
-7.46
-5.02
-2.44
0.11
2.45
4.42
5.88
6.81
7.27
7.40
7.36
7.27
7.19
7.13
7.12
7.15
7.21
7.25
7.24
7.14
6.97
6.75
6.55
6.38
6.21
5.96
5.55
4.95
4.16
3.28
2.39
1.60
0.96
0.46
0.05
-0.35
-0.85
-1.52
-2.41
-3.50
-4.69
-5.87
-6.93
-7.84
-8.65
-9.44
-10.34
-11.42
-12.66
-13.95
-15.07
-15.75
-15.75
-14.92
-13.24
-10.88
-8.15
-5.40
-2.87
-0.68
1.16
2.70
3.97
4.93
5.59
5.97
6.16
6.27
6.34
6.38
6.35
6.22
6.03
5.85
5.76
5.75
5.73
5.55
5.12
4.44
3.66
2.97
2.54
2.40
2.45
2.51
2.36
1.93
1.22
0.31
-0.67
-1.67
-2.68
-3.71
-4.72
-5.70
-6.62
-7.52
-8.48
-9.57
-10.74
-11.81
-12.48
-12.44
-11.52
-9.78
-7.45
-4.88
-2.38
-0.16
1.69
3.17
4.33
5.21
5.88
6.40
6.79
7.06
7.19
7.14
6.96
6.71
6.54
6.54
6.75
7.06
7.34
7.41
7.21
6.75
6.14
5.51
4.98
4.62
4.40
4.23
3.96
3.43
2.53
1.23
-0.40
-2.23
-4.15
-6.09
-8.04
-10.00
-11.95
-13.80
-15.42
-16.71
-17.61
-18.19
-18.55
-18.75
-18.77
-18.51
-17.82
-16.61
-14.86
-12.59
-9.88
-6.75
-3.20
0.74
4.94
9.19
13.19
16.69
19.52
21.65
23.11
23.97
24.27
24.02
23.25
21.99
20.34
18.41
16.32
14.21
12.22
10.43
8.90
7.63
6.58
5.66
4.81
3.95
3.02
1.96
0.77
-0.51
-1.77
-2.87
-3.70
-4.26
-4.67
-5.13
-5.77
-6.62
-7.58
-8.47
-9.12
-9.46
-9.49
-9.31
-9.03
-8.76
-8.61
-8.66
-8.90
-9.22
-9.38
-9.12
-8.26
-6.77
-4.83
-2.71
-0.71
1.00
2.39
3.55
4.61
5.67
6.76
7.84
8.82
9.61
10.12
10.31
10.19
9.78
9.17
8.44
7.69
6.98
6.38
5.91
5.57
5.30
5.05
4.74
4.29
3.66
2.83
1.85
0.84
-0.09
-0.84
-1.37
-1.74
-2.05
-2.37
-2.76
-3.23
-3.77
-4.34
-4.93
-5.50
-6.03
-6.52
-7.02
-7.62
-8.39
-9.33
-10.30
-11.07
-11.39
-11.07
-10.06
-8.47
-6.50
-4.37
-2.28
-0.34
1.40
2.93
4.22
5.23
5.92
6.27
6.31
6.16
5.93
5.74
5.64
5.60
5.57
5.51
5.38
5.18
4.96
4.73
4.52
4.32
4.11
3.83
3.48
3.05
2.57
2.12
1.70
1.34
0.97
0.53
-0.03
-0.71
-1.48
-2.29
-3.09
-3.87
-4.60
-5.25
-5.82
-6.32
-6.85
-7.53
-8.46
-9.63
-10.91
-12.02
-12.69
-12.70
-11.99
-10.62
-8.72
-6.46
-4.01
-1.55
0.73
2.65
4.11
5.08
5.68
6.06
6.38
6.74
7.13
7.46
7.62
7.56
7.27
6.84
6.38
6.01
5.80
5.76
5.86
6.04
6.24
6.39
6.45
6.35
6.04
5.54
4.88
4.16
3.51
2.95
2.47
1.96
1.29
0.40
-0.64
-1.66
-2.50
-3.05
-3.35
-3.58
-3.91
-4.44
-5.11
-5.83
-6.48
-7.03
-7.53
-7.99
-8.35
-8.44
-8.09
-7.18
-5.76
-4.03
-2.23
-0.62
0.67
1.61
2.24
2.63
2.87
3.01
3.11
3.22
3.36
3.55
3.77
3.98
4.16
4.28
4.29
4.20
3.99
3.65
3.17
2.56
1.81
0.98
0.09
-0.83
-1.76
-2.72
-3.71
-4.70
-5.64
-6.45
-7.14
-7.75
-8.38
-9.08
-9.85
-10.61
-11.26
-11.79
-12.26
-12.81
-13.54
-14.42
-15.26
-15.83
-15.88
-15.25
-13.91
-11.90
-9.31
-6.27
-2.92
0.52
3.81
6.73
9.13
10.93
12.15
12.88
13.24
13.33
13.25
13.07
12.81
12.52
12.20
11.83
11.40
10.89
10.34
9.82
9.38
9.02
8.70
8.26
7.57
6.60
5.40
4.17
3.11
2.35
1.85
1.47
1.01
0.34
-0.54
-1.59
-2.69
-3.76
-4.79
-5.76
-6.67
-7.52
-8.29
-9.01
-9.69
-10.35
-10.95
-11.38
-11.44
-10.96
-9.83
-8.08
-5.90
-3.58
-1.42
0.36
1.66
2.51
3.06
3.46
3.80
4.11
4.35
4.47
4.43
4.24
3.96
3.67
3.43
3.30
3.26
3.26
3.23
3.10
2.88
2.61
2.34
2.12
1.93
1.71
1.42
1.01
0.48
-0.15
-0.88
-1.68
-2.59
-3.57
-4.59
-5.58
-6.48
-7.22
-7.81
-8.25
-8.63
-9.00
-9.46
-10.04
-10.74
-11.50
-12.13
-12.44
-12.21
-11.32
-9.75
-7.58
-5.00
-2.27
0.37
2.68
4.46
5.64
6.27
6.52
6.61
6.72
6.93
7.16
7.30
7.23
6.94
6.50
6.02
5.62
5.36
5.28
5.36
5.61
6.02
6.54
7.12
7.68
8.13
8.38
8.35
7.92
7.04
5.70
3.93
1.90
-0.21
-2.22
-4.01
-5.52
-6.76
-7.77
-8.56
-9.15
-9.58
-9.94
-10.37
-10.99
-11.79
-12.63
-13.28
-13.49
-13.13
-12.20
-10.80
-9.09
-7.19
-5.21
-3.21
-1.24
0.65
2.39
3.94
5.27
6.37
7.25
7.93
8.46
8.86
9.13
9.24
9.15
8.84
8.36
7.81
7.30
6.89
6.56
6.28
6.02
5.77
5.56
5.35
5.10
4.75
4.24
3.60
2.89
2.16
1.46
0.77
0.08
-0.62
-1.29
-1.88
-2.37
-2.81
-3.37
-4.26
-5.68
-7.67
-10.08
-12.53
-14.55
-15.71
-15.79
-14.86
-13.17
-11.01
-8.60
-6.05
-3.37
-0.61
2.09
4.55
6.58
8.11
9.16
9.81
10.15
10.26
10.17
9.89
9.46
8.91
8.35
7.85
7.45
7.17
6.97
6.81
6.68
6.59
6.58
6.67
6.82
6.93
6.90
6.63
6.07
5.25
4.23
3.12
2.00
0.96
0.06
-0.67
-1.29
-1.88
-2.55
-3.39
-4.39
-5.52
-6.76
-8.04
-9.34
-10.63
-11.88
-13.07
-14.19
-15.14
-15.82
-16.02
-15.58
-14.38
-12.43
-9.92
-7.06
-4.14
-1.39
1.04
3.05
4.58
5.66
6.34
6.70
6.86
6.89
6.87
6.82
6.80
6.89
7.11
7.47
7.89
8.30
8.60
8.76
8.80
8.75
8.64
8.41
8.04
7.49
6.80
6.05
5.33
4.68
4.06
3.38
2.58
1.62
0.54
-0.54
-1.48
-2.20
-2.65
-2.86
-2.92
-2.93
-3.02
-3.28
-3.72
-4.32
-5.01
-5.68
-6.21
-6.45
-6.28
-5.61
-4.41
-2.78
-0.92
0.86
2.32
3.31
3.86
4.16
4.45
4.90
5.53
6.22
6.79
7.10
7.12
6.93
6.67
6.39
6.11
5.76
5.34
4.88
4.51
4.36
4.46
4.71
4.94
4.96
4.71
4.24
3.68
3.16
2.73
2.38
2.06
1.73
1.29
0.72
-0.06
-1.03
-2.14
-3.28
-4.32
-5.21
-6.00
-6.80
-7.76
-8.97
-10.38
-11.84
-13.18
-14.15
-14.58
-14.33
-13.35
-11.70
-9.56
-7.19
-4.82
-2.65
-0.75
0.90
2.35
3.66
4.88
5.95
6.85
7.49
7.82
7.83
7.55
7.09
6.63
6.31
6.23
6.39
6.67
6.94
7.05
6.96
6.69
6.30
5.87
5.41
4.91
4.32
3.65
2.92
2.22
1.60
1.06
0.52
-0.11
-0.88
-1.78
-2.73
-3.64
-4.45
-5.21
-5.98
-6.85
-7.80
-8.78
-9.74
-10.62
-11.41
-12.09
-12.56
-12.63
-12.04
-10.64
-8.46
-5.75
-2.91
-0.37
1.60
2.95
3.78
4.25
4.53
4.71
4.86
5.01
5.21
5.48
5.77
6.01
6.06
5.87
5.45
4.92
4.40
4.02
3.84
3.82
3.86
3.85
3.69
3.36
2.92
2.45
2.04
1.69
1.37
0.99
0.50
-0.14
-0.87
-1.65
-2.45
-3.28
-4.15
-5.05
-5.95
-6.82
-7.61
-8.32
-8.96
-9.53
-9.95
-10.07
-9.70
-8.69
-7.02
-4.83
-2.38
0.02
2.10
3.70
4.81
5.48
5.81
5.89
5.81
5.63
5.40
5.20
5.03
4.89
4.74
4.53
4.26
3.98
3.78
3.70
3.73
3.82
3.86
3.75
3.45
2.96
2.30
1.56
0.79
0.08
-0.55
-1.10
-1.65
-2.29
-3.11
-4.09
-5.15
-6.17
-7.05
-7.81
-8.55
-9.42
-10.48
-11.64
-12.66
-13.26
-13.18
-12.33
-10.77
-8.71
-6.38
-3.97
-1.66
0.46
2.31
3.83
5.01
5.84
6.42
6.84
7.18
7.45
7.61
7.56
7.25
6.70
6.01
5.36
4.90
4.70
4.75
4.95
5.18
5.35
5.39
5.27
4.97
4.48
3.87
3.22
2.64
2.18
1.79
1.31
0.60
-0.42
-1.69
-3.00
-4.13
-4.95
-5.46
-5.80
-6.16
-6.70
-7.48
-8.50
-9.68
-10.86
-11.89
-12.58
-12.75
-12.31
-11.22
-9.57
-7.51
-5.24
-2.97
-0.84
1.03
2.59
3.84
4.81
5.54
6.08
6.47
6.75
6.96
7.12
7.19
7.15
6.95
6.63
6.26
5.96
5.79
5.73
5.69
5.53
5.17
4.64
4.03
3.47
3.03
2.66
2.27
1.75
1.07
0.27
-0.52
-1.22
-1.77
-2.17
-2.48
-2.79
-3.16
-3.69
-4.46
-5.54
-6.93
-8.50
-10.02
-11.18
-11.70
-11.41
-10.30
-8.51
-6.28
-3.87
-1.51
0.64
2.45
3.87
4.91
5.60
6.02
6.24
6.34
6.36
6.28
6.10
5.83
5.50
5.10
4.68
4.24
3.83
3.46
3.16
2.89
2.59
2.19
1.63
0.89
0.01
-0.93
-1.89
-2.78
-3.57
-4.23
-4.74
-5.13
-5.43
-5.76
-6.21
-6.86
-7.73
-8.81
-10.02
-11.25
-12.36
-13.18
-13.53
-13.26
-12.29
-10.61
-8.37
-5.77
-3.06
-0.45
1.89
3.86
5.43
6.66
7.64
8.45
9.14
9.71
10.11
10.27
10.19
9.91
9.52
9.12
8.76
8.43
8.10
7.72
7.33
6.94
6.57
6.19
5.72
5.10
4.33
3.48
2.66
1.98
1.49
1.14
0.78
0.28
-0.47
-1.45
-2.59
-3.78
-4.93
-5.99
-6.97
-7.89
-8.82
-9.80
-10.85
-11.98
-13.13
-14.19
-14.97
-15.25
-14.85
-13.71
-11.88
-9.53
-6.87
-4.12
-1.45
0.99
3.06
4.67
5.84
6.64
7.22
7.69
8.11
8.43
8.53
8.35
7.94
7.45
7.07
6.91
6.99
7.19
7.37
7.41
7.24
6.88
6.35
5.68
4.94
4.18
3.46
2.82
2.25
1.72
1.14
0.50
-0.21
-0.92
-1.59
-2.22
-2.85
-3.52
-4.24
-4.96
-5.67
-6.33
-7.00
-7.75
-8.61
-9.53
-10.39
-11.03
-11.32
-11.19
-10.62
-9.61
-8.21
-6.45
-4.44
-2.31
-0.22
1.72
3.43
4.87
5.99
6.78
7.23
7.42
7.43
7.41
7.39
7.39
7.35
7.22
6.97
6.66
6.37
6.17
6.11
6.19
6.37
6.58
6.71
6.68
6.39
5.83
5.06
4.23
3.48
2.88
2.40
1.92
1.27
0.36
-0.77
-1.97
-3.03
-3.84
-4.42
-4.88
-5.42
-6.19
-7.22
-8.50
-9.90
-11.31
-12.56
-13.48
-13.87
-13.58
-12.53
-10.76
-8.39
-5.65
-2.80
-0.13
2.12
3.82
4.94
5.63
6.09
6.53
7.05
7.64
8.17
8.54
8.69
8.65
8.49
8.26
8.01
7.72
7.39
7.00
6.53
5.96
5.28
4.51
3.70
2.92
2.28
1.81
1.47
1.15
0.74
0.16
-0.62
-1.56
-2.57
-3.58
-4.56
-5.47
-6.33
-7.19
-8.11
-9.14
-10.31
-11.57
-12.77
-13.70
-14.14
-13.90
-12.91
-11.22
-8.95
-6.32
-3.52
-0.78
1.73
3.87
5.58
6.84
7.71
8.28
8.61
8.78
8.81
8.72
8.54
8.32
8.09
7.88
7.65
7.38
7.00
6.54
6.08
5.75
5.63
5.71
5.84
5.85
5.55
4.92
4.04
3.10
2.24
1.53
0.93
0.32
-0.41
-1.31
-2.36
-3.47
-4.57
-5.63
-6.66
-7.75
-8.95
-10.27
-11.70
-13.12
-14.42
-15.44
-16.06
-16.15
-15.62
-14.40
-12.50
-10.02
-7.14
-4.11
-1.21
1.32
3.35
4.85
5.88
6.59
7.13
7.60
8.04
8.45
8.82
9.11
9.33
9.46
9.50
9.42
9.23
8.95
8.64
8.34
8.09
7.85
7.59
7.28
6.88
6.36
5.72
4.94
4.04
3.07
2.13
1.28
0.57
-0.05
-0.66
-1.33
-2.10
-2.96
-3.86
-4.77
-5.69
-6.67
-7.75
-8.94
-10.26
-11.69
-13.20
-14.66
-15.87
-16.52
-16.31
-15.06
-12.84
-9.91
-6.71
-3.63
-0.90
1.38
3.26
4.80
6.03
6.98
7.67
8.18
8.63
9.10
9.62
10.08
10.34
10.26
9.82
9.07
8.20
7.37
6.71
6.28
6.04
5.94
5.94
5.99
6.08
6.11
5.97
5.56
4.85
3.88
2.80
1.74
0.79
-0.06
-0.87
-1.73
-2.68
-3.71
-4.75
-5.78
-6.77
-7.76
-8.81
-9.97
-11.26
-12.62
-13.94
-15.03
-15.66
-15.64
-14.86
-13.33
-11.18
-8.58
-5.76
-2.90
-0.15
2.29
4.27
5.67
6.52
6.94
7.15
7.31
7.52
7.71
7.77
7.61
7.23
6.73
6.25
5.87
5.63
5.53
5.54
5.62
5.70
5.67
5.42
4.88
4.12
3.22
2.33
1.50
0.76
0.06
-0.65
-1.40
-2.20
-3.07
-4.02
-5.03
-6.06
-7.02
-7.90
-8.75
-9.70
-10.82
-12.09
-13.24
-13.95
-13.90
-12.98
-11.31
-9.18
-6.89
-4.63
-2.45
-0.29
1.86
3.93
5.77
7.21
8.15
8.62
8.77
8.75
8.73
8.74
8.75
8.70
8.52
8.20
7.83
7.52
7.36
7.38
7.52
7.61
7.51
7.14
6.53
5.76
4.95
4.16
3.37
2.52
1.57
0.54
-0.52
-1.51
-2.36
-3.08
-3.76
-4.50
-5.38
-6.44
-7.67
-9.03
-10.48
-11.99
-13.48
-14.84
-15.85
-16.30
-15.99
-14.84
-12.91
-10.39
-7.57
-4.69
-1.99
0.43
2.49
4.22
5.66
6.88
7.93
8.82
9.52
10.00
10.23
10.25
10.10
9.84
9.53
9.16
8.75
8.32
7.90
7.53
7.21
6.91
6.55
6.07
5.47
4.81
4.18
3.64
3.16
2.61
1.85
0.75
-0.67
-2.29
-3.91
-5.32
-6.46
-7.38
-8.24
-9.22
-10.43
-11.89
-13.46
-14.91
-15.93
-16.24
-15.66
-14.16
-11.91
-9.21
-6.35
-3.57
-0.97
1.44
3.65
5.62
7.25
8.47
9.26
9.71
9.95
10.12
10.24
10.30
10.24
10.03
9.68
9.24
8.80
8.42
8.12
7.89
7.64
7.33
6.90
6.37
5.78
5.17
4.57
3.96
3.35
2.71
2.02
1.28
0.48
-0.43
-1.47
-2.63
-3.84
-5.04
-6.13
-7.13
-8.08
-9.10
-10.32
-11.77
-13.34
-14.80
-15.81
-16.06
-15.38
-13.80
-11.57
-9.08
-6.64
-4.45
-2.50
-0.67
1.17
3.08
4.98
6.70
8.08
9.02
9.53
9.67
9.54
9.20
8.70
8.05
7.29
6.50
5.82
5.36
5.19
5.28
5.51
5.69
5.66
5.29
4.58
3.62
2.53
1.39
0.26
-0.86
-1.94
-2.93
-3.79
-4.50
-5.09
-5.71
-6.52
-7.63
-9.02
-10.52
-11.80
-12.53
-12.45
-11.48
-9.74
-7.44
-4.86
-2.21
0.35
2.71
4.79
6.54
7.90
8.84
9.39
9.63
9.65
9.53
9.33
9.06
8.72
8.29
7.76
7.18
6.61
6.14
5.80
5.59
5.47
5.32
5.04
4.57
3.91
3.09
2.21
1.30
0.43
-0.42
-1.27
-2.13
-3.03
-3.92
-4.73
-5.44
-6.05
-6.68
-7.49
-8.61
-10.07
-11.76
-13.47
-14.98
-16.09
-16.66
-16.55
-15.62
-13.76
-10.98
-7.50
-3.78
-0.36
2.35
4.19
5.35
6.17
7.01
8.00
9.05
9.96
10.56
10.80
10.77
10.59
10.37
10.12
9.80
9.36
8.81
8.21
7.68
7.35
7.24
7.32
7.43
7.38
7.05
6.39
5.48
4.46
3.45
2.48
1.54
0.54
-0.54
-1.67
-2.77
-3.76
-4.62
-5.38
-6.09
-6.79
-7.47
-8.10
-8.75
-9.51
-10.53
-11.89
-13.53
-15.24
-16.68
-17.53
-17.52
-16.58
-14.77
-12.24
-9.24
-6.06
-3.00
-0.31
1.88
3.57
4.90
6.07
7.21
8.34
9.33
10.04
10.34
10.21
9.77
9.21
8.72
8.40
8.26
8.22
8.16
8.02
7.78
7.45
7.06
6.65
6.25
5.88
5.56
5.28
5.01
4.68
4.24
3.63
2.90
2.08
1.27
0.48
-0.25
-0.97
-1.69
-2.43
-3.21
-4.05
-4.97
-5.94
-6.94
-7.90
-8.82
-9.75
-10.81
-12.12
-13.70
-15.38
-16.80
-17.56
-17.34
-16.06
-13.90
-11.21
-8.35
-5.58
-2.98
-0.56
1.68
3.66
5.29
6.49
7.29
7.81
8.23
8.69
9.22
9.71
10.00
9.96
9.57
8.93
8.23
7.66
7.36
7.32
7.43
7.53
7.49
7.20
6.66
5.88
4.92
3.85
2.77
1.79
1.01
0.50
0.19
-0.04
-0.35
-0.87
-1.65
-2.63
-3.70
-4.74
-5.66
-6.46
-7.20
-7.98
-8.89
-10.00
-11.23
-12.44
-13.38
-13.82
-13.56
-12.55
-10.85
-8.62
-6.06
-3.37
-0.73
1.70
3.76
5.36
6.45
7.08
7.35
7.41
7.40
7.42
7.51
7.61
7.60
7.39
6.93
6.31
5.72
5.31
5.14
5.13
5.10
4.89
4.47
3.93
3.40
2.98
2.64
2.25
1.66
0.81
-0.26
-1.41
-2.50
-3.45
-4.26
-4.99
-5.71
-6.49
-7.34
-8.27
-9.27
-10.37
-11.55
-12.76
-13.87
-14.64
-14.80
-14.17
-12.72
-10.56
-7.98
-5.29
-2.71
-0.36
1.75
3.69
5.45
6.99
8.19
8.96
9.26
9.17
8.84
8.48
8.20
8.05
7.92
7.71
7.32
6.78
6.21
5.79
5.63
5.73
5.95
6.07
5.92
5.38
4.53
3.52
2.54
1.72
1.05
0.46
-0.20
-1.03
-2.01
-3.08
-4.11
-5.02
-5.80
-6.52
-7.30
-8.23
-9.36
-10.65
-12.03
-13.39
-14.61
-15.60
-16.21
-16.32
-15.76
-14.42
-12.28
-9.48
-6.33
-3.19
-0.39
1.90
3.70
5.16
6.42
7.55
8.52
9.27
9.75
9.98
10.00
9.84
9.50
8.98
8.31
7.61
7.02
6.64
6.49
6.49
6.53
6.50
6.35
6.08
5.69
5.18
4.57
3.86
3.07
2.21
1.27
0.24
-0.83
-1.91
-2.91
-3.77
-4.47
-5.06
-5.64
-6.32
-7.17
-8.23
-9.45
-10.78
-12.13
-13.39
-14.45
-15.16
-15.35
-14.85
-13.59
-11.59
-9.01
-6.11
-3.19
-0.50
1.82
3.75
5.30
6.56
7.53
8.25
8.74
9.03
9.21
9.31
9.33
9.23
8.99
8.59
8.11
7.64
7.28
7.07
6.93
6.78
6.51
6.09
5.54
4.94
4.32
3.66
2.92
2.03
1.00
-0.09
-1.08
-1.87
-2.47
-2.98
-3.58
-4.43
-5.56
-6.86
-8.14
-9.26
-10.22
-11.16
-12.25
-13.53
-14.83
-15.80
-16.09
-15.46
-13.96
-11.80
-9.27
-6.61
-3.92
-1.25
1.34
3.74
5.76
7.28
8.31
8.96
9.41
9.83
10.25
10.58
10.72
10.56
10.10
9.40
8.61
7.86
7.28
6.93
6.83
6.94
7.15
7.31
7.27
6.92
6.26
5.37
4.36
3.35
2.39
1.48
0.57
-0.42
-1.53
-2.75
-4.05
-5.33
-6.48
-7.42
-8.10
-8.54
-8.87
-9.23
-9.77
-10.57
-11.58
-12.67
-13.64
-14.30
-14.46
-13.98
-12.76
-10.73
-7.95
-4.64
-1.14
2.13
4.80
6.65
7.74
8.22
8.36
8.36
8.31
8.24
8.13
7.98
7.77
7.48
7.03
6.36
5.46
4.42
3.42
2.69
2.36
2.40
2.66
2.88
2.84
2.48
1.84
1.12
0.44
-0.13
-0.61
-1.13
-1.75
-2.49
-3.31
-4.10
-4.78
-5.28
-5.59
-5.72
-5.73
-5.71
-5.78
-6.05
-6.61
-7.45
-8.44
-9.35
-9.87
-9.72
-8.69
-6.77
-4.12
-1.04
2.07
4.83
6.99
8.45
9.27
9.60
9.64
9.58
9.56
9.61
9.69
9.68
9.46
8.95
8.18
7.31
6.54
6.02
5.85
5.98
6.32
6.74
7.15
7.47
7.62
7.51
7.05
6.27
5.25
4.17
3.21
2.45
1.85
1.26
0.52
-0.49
-1.79
-3.29
-4.86
-6.36
-7.67
-8.73
-9.57
-10.25
-10.92
-11.74
-12.80
-14.12
-15.58
-16.95
-17.96
-18.36
-17.99
-16.81
-14.88
-12.34
-9.37
-6.16
-2.95
0.06
2.71
4.89
6.57
7.79
8.62
9.17
9.55
9.85
10.14
10.39
10.55
10.51
10.20
9.65
8.98
8.38
8.01
7.92
8.03
8.19
8.26
8.14
7.82
7.31
6.65
5.85
4.92
3.92
2.91
1.96
1.10
0.32
-0.45
-1.26
-2.13
-3.02
-3.86
-4.63
-5.37
-6.19
-7.23
-8.65
-10.46
-12.53
-14.57
-16.16
-16.92
-16.57
-15.03
-12.49
-9.29
-5.88
-2.67
0.04
2.08
3.48
4.38
4.97
5.43
5.86
6.26
6.59
6.81
6.88
6.81
6.65
6.45
6.24
6.00
5.72
5.39
5.02
4.61
4.17
3.67
3.06
2.31
1.40
0.35
-0.77
-1.89
-2.94
-3.90
-4.82
-5.77
-6.80
-7.96
-9.21
-10.49
-11.71
-12.82
-13.89
-15.05
-16.49
-18.33
-20.59
-23.08
-25.44
-27.21
-28.03
-27.69
-26.22
-23.81
-20.69
-17.03
-12.90
-8.31
-3.36
1.75
6.71
11.25
15.17
18.47
21.20
23.44
25.22
26.47
27.12
27.14
26.62
25.71
24.61
23.47
22.36
21.32
20.32
19.33
18.34
17.35
16.30
15.18
13.93
12.54
11.08
9.60
8.18
6.84
5.57
4.33
3.07
1.79
0.48
-0.86
-2.23
-3.62
-5.01
-6.32
-7.52
-8.61
-9.67
-10.83
-12.20
-13.71
-15.16
-16.23
-16.58
-15.99
-14.44
-12.09
-9.26
-6.28
-3.45
-0.95
1.15
2.89
4.37
5.67
6.85
7.91
8.83
9.55
10.02
10.20
10.10
9.76
9.26
8.71
8.18
7.74
7.38
7.07
6.74
6.35
5.91
5.45
5.01
4.62
4.29
3.93
3.46
2.83
2.02
1.12
0.20
-0.69
-1.52
-2.36
-3.21
-4.06
-4.83
-5.47
-6.03
-6.62
-7.39
-8.47
-9.82
-11.30
-12.66
-13.68
-14.17
-13.99
-13.05
-11.34
-8.95
-6.06
-2.97
0.01
2.59
4.63
6.09
7.06
7.66
8.01
8.21
8.34
8.41
8.41
8.29
8.00
7.51
6.82
6.02
5.19
4.45
3.91
3.65
3.73
4.09
4.58
4.98
5.05
4.65
3.81
2.70
1.57
0.63
-0.07
-0.65
-1.26
-2.03
-2.98
-4.04
-5.13
-6.22
-7.29
-8.35
-9.41
-10.45
-11.45
-12.40
-13.28
-13.98
-14.33
-14.10
-13.16
-11.49
-9.24
-6.68
-4.04
-1.49
0.89
3.09
5.05
6.70
7.95
8.76
9.18
9.30
9.25
9.10
8.91
8.70
8.52
8.41
8.37
8.32
8.14
7.71
7.04
6.25
5.57
5.14
4.98
5.00
4.99
4.81
4.39
3.76
2.98
2.12
1.22
0.35
-0.47
-1.21
-1.89
-2.60
-3.41
-4.34
-5.36
-6.38
-7.32
-8.20
-9.10
-10.14
-11.42
-12.88
-14.38
-15.65
-16.43
-16.51
-15.81
-14.34
-12.21
-9.62
-6.78
-3.92
-1.21
1.23
3.35
5.11
6.54
7.63
8.37
8.78
8.87
8.71
8.41
8.06
7.72
7.41
7.09
6.75
6.38
6.05
5.80
5.69
5.73
5.86
6.05
6.19
6.22
6.06
5.66
5.00
4.11
3.10
2.10
1.27
0.69
0.37
0.17
-0.11
-0.65
-1.54
-2.72
-4.02
-5.23
-6.27
-7.15
-8.00
-8.96
-10.05
-11.22
-12.31
-13.19
-13.77
-13.99
-13.79
-13.09
-11.82
-9.94
-7.52
-4.74
-1.87
0.80
3.04
4.74
5.96
6.79
7.40
7.87
8.20
8.32
8.18
7.76
7.14
6.48
5.95
5.60
5.45
5.38
5.31
5.18
5.00
4.80
4.60
4.38
4.04
3.47
2.61
1.47
0.16
-1.15
-2.34
-3.33
-4.11
-4.72
-5.20
-5.60
-5.94
-6.28
-6.71
-7.29
-8.10
-9.12
-10.31
-11.48
-12.44
-12.93
-12.75
-11.84
-10.23
-8.11
-5.70
-3.23
-0.86
1.33
3.31
5.05
6.53
7.69
8.51
9.02
9.26
9.33
9.26
9.08
8.79
8.41
7.99
7.58
7.25
7.01
6.83
6.63
6.33
5.90
5.36
4.74
4.10
3.47
2.86
2.26
1.68
1.13
0.59
0.02
-0.64
-1.39
-2.19
-2.98
-3.65
-4.18
-4.59
-4.97
-5.42
-6.00
-6.77
-7.72
-8.86
-10.19
-11.72
-13.35
-14.92
-16.17
-16.86
-16.82
-16.00
-14.52
-12.58
-10.39
-8.09
-5.75
-3.36
-0.90
1.57
3.96
6.10
7.83
9.00
9.57
9.59
9.20
8.59
7.93
7.34
6.90
6.62
6.52
6.56
6.70
6.88
7.02
7.07
6.98
6.76
6.42
5.98
5.46
4.87
4.21
3.55
2.90
2.27
1.62
0.90
0.06
-0.87
-1.82
-2.71
-3.51
-4.25
-5.01
-5.85
-6.80
-7.86
-9.02
-10.31
-11.76
-13.32
-14.86
-16.14
-16.89
-16.90
-16.07
-14.45
-12.18
-9.47
-6.54
-3.59
-0.77
1.77
3.94
5.72
7.11
8.18
9.00
9.64
10.17
10.57
10.80
10.81
10.53
9.95
9.11
8.16
7.23
6.46
5.90
5.52
5.21
4.90
4.51
4.05
3.54
3.01
2.47
1.96
1.47
1.01
0.53
-0.01
-0.69
-1.58
-2.67
-3.91
-5.20
-6.45
-7.63
-8.77
-9.94
-11.11
-12.21
-13.09
-13.56
-13.49
-12.81
-11.54
-9.80
-7.69
-5.34
-2.84
-0.31
2.11
4.23
5.89
6.98
7.56
7.75
7.77
7.78
7.84
7.95
8.05
8.04
7.92
7.67
7.35
6.99
6.67
6.44
6.34
6.35
6.36
6.24
5.88
5.24
4.40
3.49
2.59
1.72
0.80
-0.28
-1.57
-3.01
-4.43
-5.67
-6.61
-7.27
-7.78
-8.32
-9.07
-10.09
-11.40
-12.91
-14.45
-15.79
-16.67
-16.85
-16.16
-14.55
-12.16
-9.24
-6.12
-3.11
-0.42
1.87
3.77
5.36
6.72
7.90
8.89
9.66
10.18
10.44
10.47
10.31
10.00
9.59
9.12
8.59
8.04
7.52
7.11
6.86
6.77
6.76
6.67
6.41
5.93
5.33
4.75
4.34
4.11
3.97
3.72
3.21
2.38
1.25
-0.07
-1.48
-2.91
-4.35
-5.78
-7.14
-8.40
-9.54
-10.63
-11.78
-13.12
-14.69
-16.37
-17.89
-18.86
-18.94
-17.93
-15.86
-12.94
-9.50
-5.92
-2.50
0.53
3.06
5.09
6.71
8.00
9.06
9.93
10.59
11.01
11.16
11.06
10.76
10.36
9.93
9.57
9.30
9.10
8.91
8.63
8.18
7.56
6.86
6.22
5.72
5.35
4.99
4.54
3.92
3.16
2.35
1.54
0.74
-0.11
-1.04
-2.00
-2.83
-3.41
-3.67
-3.73
-3.87
-4.36
-5.42
-7.00
-8.92
-10.84
-12.47
-13.58
-14.06
-13.88
-13.02
-11.49
-9.32
-6.63
-3.63
-0.60
2.19
4.57
6.45
7.84
8.77
9.29
9.44
9.29
8.93
8.48
8.03
7.64
7.31
6.98
6.64
6.26
5.90
5.63
5.48
5.46
5.48
5.43
5.19
4.72
4.04
3.24
2.47
1.79
1.17
0.48
-0.43
-1.65
-3.13
-4.69
-6.09
-7.17
-7.90
-8.42
-8.93
-9.67
-10.74
-12.16
-13.79
-15.42
-16.80
-17.66
-17.80
-17.08
-15.47
-13.01
-9.88
-6.31
-2.61
0.90
3.94
6.30
7.96
9.00
9.64
10.09
10.54
11.05
11.57
11.99
12.22
12.22
12.03
11.71
11.35
10.97
10.57
10.15
9.72
9.32
8.98
8.70
8.42
8.02
7.41
6.54
5.43
4.14
2.78
1.44
0.18
-0.97
-1.99
-2.88
-3.65
-4.32
-4.96
-5.64
-6.44
-7.44
-8.65
-10.06
-11.60
-13.17
-14.67
-16.00
-17.06
-17.75
-17.89
-17.34
-15.93
-13.64
-10.58
-7.02
-3.37
-0.01
2.74
4.78
6.16
7.08
7.78
8.43
9.11
9.77
10.33
10.68
10.75
10.55
10.14
9.61
9.08
8.60
8.21
7.91
7.64
7.36
7.05
6.72
6.38
6.05
5.71
5.29
4.73
3.96
3.01
1.96
0.87
-0.18
-1.16
-2.08
-2.97
-3.81
-4.59
-5.34
-6.10
-6.99
-8.11
-9.51
-11.16
-12.87
-14.39
-15.39
-15.57
-14.72
-12.86
-10.17
-7.03
-3.87
-1.02
1.37
3.30
4.89
6.27
7.47
8.45
9.17
9.58
9.72
9.68
9.51
9.26
8.95
8.57
8.19
7.89
7.73
7.73
7.79
7.79
7.62
7.20
6.56
5.77
4.90
4.03
3.20
2.43
1.75
1.13
0.51
-0.17
-0.98
-1.94
-3.01
-4.13
-5.23
-6.29
-7.33
-8.44
-9.70
-11.13
-12.71
-14.35
-15.87
-17.09
-17.79
-17.78
-16.92
-15.18
-12.67
-9.63
-6.36
-3.15
-0.20
2.40
4.66
6.55
8.08
9.17
9.82
10.07
10.06
9.97
9.92
9.94
9.97
9.93
9.75
9.46
9.10
8.73
8.38
8.02
7.64
7.21
6.73
6.23
5.74
5.28
4.82
4.35
3.80
3.16
2.43
1.58
0.62
-0.50
-1.73
-3.03
-4.27
-5.31
-6.08
-6.58
-6.94
-7.36
-8.01
-9.00
-10.30
-11.82
-13.40
-14.89
-16.13
-17.01
-17.38
-17.11
-16.08
-14.25
-11.67
-8.55
-5.18
-1.90
1.02
3.45
5.38
6.89
8.07
9.00
9.72
10.26
10.64
10.89
11.03
11.01
10.81
10.39
9.74
8.96
8.22
7.67
7.42
7.45
7.62
7.68
7.43
6.79
5.82
4.69
3.59
2.64
1.88
1.30
0.89
0.65
0.53
0.39
-0.01
-0.86
-2.26
-4.10
-6.09
-7.95
-9.46
-10.61
-11.55
-12.51
-13.65
-14.99
-16.44
-17.74
-18.67
-19.00
-18.63
-17.53
-15.74
-13.34
-10.44
-7.20
-3.82
-0.53
2.49
5.10
7.32
9.24
10.94
12.41
13.54
14.13
14.05
13.31
12.09
10.67
9.34
8.27
7.48
6.84
6.22
5.48
4.60
3.63
2.66
1.81
1.13
0.58
0.08
-0.49
-1.19
-2.03
-2.97
-3.92
-4.84
-5.72
-6.60
-7.56
-8.60
-9.70
-10.80
-11.89
-13.03
-14.31
-15.76
-17.26
-18.56
-19.29
-19.16
-18.07
-16.12
-13.58
-10.75
-7.84
-4.94
-2.06
0.82
3.61
6.14
8.20
9.64
10.44
10.70
10.63
10.46
10.38
10.43
10.58
10.72
10.75
10.62
10.38
10.12
9.91
9.74
9.58
9.35
9.00
8.49
7.86
7.11
6.26
5.31
4.27
3.21
2.19
1.29
0.53
-0.15
-0.88
-1.81
-3.00
-4.37
-5.70
-6.76
-7.42
-7.75
-7.99
-8.45
-9.32
-10.55
-11.87
-12.85
-13.13
-12.52
-11.02
-8.75
-5.90
-2.67
0.76
4.17
7.29
9.85
11.65
12.65
12.96
12.80
12.46
12.11
11.84
11.63
11.43
11.19
10.95
10.71
10.47
10.19
9.78
9.21
8.51
7.78
7.15
6.70
6.45
6.32
6.19
5.94
5.50
4.82
3.96
2.97
1.94
0.90
-0.16
-1.26
-2.38
-3.52
-4.59
-5.55
-6.42
-7.29
-8.30
-9.56
-11.11
-12.86
-14.67
-16.33
-17.68
-18.60
-19.09
-19.17
-18.89
-18.21
-17.06
-15.32
-12.88
-9.72
-6.00
-1.97
1.96
5.39
7.97
9.48
9.92
9.56
8.88
8.48
8.91
10.43
12.85
15.56
17.73
18.70
18.21
16.52
14.23
12.01
10.27
9.08
8.26
7.53
6.75
5.93
5.17
4.51
3.89
3.14
2.05
0.56
-1.23
-3.09
-4.73
-5.96
-6.73
-7.22
-7.66
-8.29
-9.18
-10.24
-11.30
-12.22
-12.99
-13.73
-14.57
-15.51
-16.42
-16.97
-16.84
-15.85
-14.01
-11.53
-8.72
-5.84
-3.06
-0.46
1.93
4.10
5.98
7.49
8.60
9.28
9.61
9.64
9.46
9.14
8.76
8.35
7.96
7.58
7.21
6.88
6.63
6.56
6.72
7.06
7.42
7.58
7.38
6.78
5.90
4.93
4.09
3.44
2.96
2.57
2.18
1.76
1.28
0.72
0.03
-0.81
-1.78
-2.80
-3.78
-4.63
-5.39
-6.15
-7.03
-8.14
-9.47
-10.93
-12.32
-13.38
-13.83
-13.44
-12.06
-9.74
-6.68
-3.23
0.24
3.41
6.07
8.16
9.67
10.60
11.00
10.93
10.50
9.87
9.22
8.71
8.44
8.46
8.73
9.14
9.57
9.91
10.09
10.10
9.95
9.72
9.43
9.09
8.68
8.14
7.46
6.61
5.63
4.60
3.57
2.57
1.57
0.54
-0.56
-1.69
-2.79
-3.79
-4.63
-5.38
-6.14
-6.98
-7.96
-9.04
-10.16
-11.26
-12.32
-13.28
-14.02
-14.37
-14.11
-13.10
-11.36
-9.05
-6.49
-4.01
-1.88
-0.15
1.26
2.50
3.66
4.70
5.47
5.77
5.54
4.86
3.98
3.19
2.69
2.52
2.57
2.72
2.88
3.08
3.38
3.78
4.20
4.49
4.52
4.25
3.75
3.13
2.47
1.78
0.95
-0.13
-1.51
-3.10
-4.73
-6.16
-7.20
-7.81
-8.09
-8.29
-8.66
-9.36
-10.34
-11.33
-11.98
-11.96
-11.10
-9.46
-7.26
-4.78
-2.26
0.14
2.29
4.11
5.50
6.40
6.84
6.90
6.70
6.36
5.98
5.59
5.18
4.74
4.28
3.79
3.29
2.75
2.14
1.48
0.80
0.19
-0.28
-0.59
-0.81
-1.04
-1.44
-2.11
-3.06
-4.21
-5.43
-6.60
-7.66
-8.60
-9.49
-10.44
-11.52
-12.77
-14.13
-15.44
-16.46
-16.93
-16.65
-15.54
-13.68
-11.26
-8.55
-5.80
-3.21
-0.90
1.08
2.74
4.11
5.23
6.17
6.98
7.66
8.19
8.53
8.63
8.50
8.12
7.48
6.60
5.51
4.34
3.30
2.57
2.29
2.37
2.57
2.58
2.13
1.16
-0.20
-1.72
-3.15
-4.37
-5.41
-6.39
-7.46
-8.73
-10.25
-11.97
-13.75
-15.39
-16.63
-17.22
-16.95
-15.72
-13.57
-10.70
-7.41
-4.08
-1.05
1.47
3.41
4.89
6.11
7.29
8.54
9.87
11.15
12.24
13.01
13.40
13.44
13.18
12.69
12.04
11.29
10.55
9.93
9.52
9.37
9.44
9.62
9.76
9.72
9.40
8.80
7.95
7.00
6.08
5.30
4.70
4.24
3.80
3.27
2.58
1.71
0.73
-0.28
-1.26
-2.20
-3.11
-4.02
-4.91
-5.74
-6.47
-7.09
-7.68
-8.39
-9.41
-10.81
-12.47
-14.06
-15.17
-15.44
-14.76
-13.24
-11.19
-8.92
-6.66
-4.51
-2.53
-0.74
0.79
2.01
2.94
3.63
4.20
4.73
5.24
5.75
6.22
6.62
6.89
6.97
6.85
6.55
6.23
6.06
6.16
6.55
7.07
7.49
7.64
7.50
7.17
6.79
6.47
6.22
5.97
5.68
5.32
4.93
4.50
4.00
3.34
2.44
1.31
0.06
-1.14
-2.16
-2.99
-3.77
-4.75
-6.13
-8.03
-10.33
-12.69
-14.64
-15.74
-15.74
-14.65
-12.70
-10.25
-7.64
-5.09
-2.70
-0.53
1.40
3.03
4.32
5.29
6.00
6.58
7.08
7.50
7.76
7.78
7.52
7.05
6.47
5.90
5.45
5.14
4.96
4.85
4.69
4.36
3.75
2.83
1.71
0.55
-0.43
-1.12
-1.51
-1.74
-1.99
-2.43
-3.12
-3.99
-4.92
-5.81
-6.57
-7.19
-7.67
-8.04
-8.40
-8.86
-9.55
-10.54
-11.75
-12.91
-13.64
-13.56
-12.42
-10.20
-7.16
-3.70
-0.26
2.82
5.37
7.39
9.04
10.45
11.76
12.98
14.07
14.93
15.52
15.85
15.97
15.96
15.81
15.50
14.98
14.26
13.44
12.69
12.14
11.82
11.67
11.50
11.14
10.50
9.56
8.44
7.22
5.99
4.76
3.50
2.16
0.75
-0.71
-2.13
-3.44
-4.60
-5.65
-6.66
-7.73
-8.89
-10.15
-11.46
-12.77
-14.01
-15.11
-15.92
-16.26
-15.92
-14.79
-12.87
-10.36
-7.57
-4.83
-2.34
-0.18
1.74
3.54
5.29
6.93
8.34
9.32
9.76
9.66
9.11
8.30
7.44
6.70
6.16
5.85
5.76
5.85
6.08
6.38
6.66
6.81
6.68
6.17
5.25
3.97
2.49
1.00
-0.31
-1.33
-2.04
-2.55
-2.98
-3.50
-4.21
-5.18
-6.42
-7.89
-9.49
-11.10
-12.60
-13.82
-14.60
-14.78
-14.24
-12.92
-10.88
-8.29
-5.44
-2.61
-0.03
2.18
4.02
5.53
6.76
7.71
8.38
8.73
8.79
8.62
8.31
7.93
7.56
7.24
6.97
6.73
6.48
6.18
5.82
5.40
4.96
4.54
4.15
3.76
3.33
2.81
2.20
1.53
0.83
0.10
-0.67
-1.51
-2.40
-3.29
-4.09
-4.76
-5.31
-5.85
-6.51
-7.44
-8.68
-10.20
-11.83
-13.28
-14.28
-14.57
-14.04
-12.70
-10.75
-8.41
-5.90
-3.37
-0.92
1.39
3.45
5.14
6.37
7.10
7.40
7.45
7.43
7.46
7.56
7.68
7.71
7.56
7.19
6.66
6.05
5.50
5.11
4.92
4.89
4.93
4.92
4.79
4.55
4.23
3.89
3.53
3.09
2.51
1.77
0.93
0.07
-0.72
-1.45
-2.20
-3.05
-4.04
-5.11
-6.14
-7.02
-7.74
-8.40
-9.16
-10.12
-11.28
-12.47
-13.42
-13.82
-13.46
-12.26
-10.30
-7.82
-5.09
-2.40
0.01
2.00
3.49
4.53
5.18
5.56
5.74
5.78
5.72
5.60
5.49
5.42
5.44
5.50
5.51
5.38
5.03
4.49
3.91
3.43
3.15
3.10
3.18
3.25
3.19
2.94
2.54
2.02
1.44
0.80
0.08
-0.74
-1.62
-2.52
-3.39
-4.23
-5.13
-6.22
-7.64
-9.40
-11.37
-13.27
-14.76
-15.53
-15.37
-14.27
-12.32
-9.74
-6.79
-3.72
-0.78
1.82
3.93
5.47
6.46
7.00
7.22
7.26
7.19
7.05
6.85
6.59
6.30
6.01
5.77
5.55
5.34
5.06
4.66
4.12
3.47
2.77
2.14
1.66
1.42
1.41
1.53
1.64
1.58
1.26
0.70
-0.00
-0.76
-1.49
-2.20
-2.90
-3.60
-4.28
-4.95
-5.67
-6.54
-7.70
-9.19
-10.90
-12.58
-13.88
-14.54
-14.36
-13.38
-11.72
-9.61
-7.21
-4.70
-2.17
0.26
2.47
4.32
5.71
6.60
7.02
7.07
6.88
6.60
6.35
6.21
6.23
6.38
6.58
6.71
6.71
6.51
6.17
5.76
5.39
5.10
4.88
4.73
4.60
4.53
4.54
4.63
4.77
4.86
4.79
4.48
3.91
3.08
2.07
0.95
-0.21
-1.31
-2.30
-3.14
-3.86
-4.55
-5.32
-6.28
-7.45
-8.80
-10.18
-11.43
-12.33
-12.70
-12.42
-11.44
-9.77
-7.53
-4.91
-2.15
0.47
2.69
4.38
5.49
6.13
6.49
6.73
6.96
7.15
7.24
7.13
6.82
6.36
5.89
5.48
5.19
4.99
4.81
4.58
4.25
3.83
3.37
2.89
2.41
1.92
1.38
0.75
0.03
-0.76
-1.60
-2.45
-3.32
-4.18
-5.03
-5.84
-6.56
-7.14
-7.61
-8.04
-8.58
-9.34
-10.35
-11.44
-12.32
-12.63
-12.11
-10.72
-8.64
-6.17
-3.66
-1.33
0.72
2.49
3.99
5.20
6.04
6.49
6.59
6.49
6.32
6.19
6.10
6.01
5.84
5.62
5.43
5.38
5.56
5.92
6.34
6.63
6.68
6.45
6.01
5.50
5.06
4.72
4.47
4.18
3.75
3.11
2.28
1.37
0.50
-0.27
-0.97
-1.68
-2.50
-3.43
-4.42
-5.37
-6.25
-7.14
-8.20
-9.55
-11.16
-12.81
-14.17
-14.90
-14.79
-13.85
-12.20
-10.06
-7.64
-5.13
-2.70
-0.51
1.30
2.68
3.66
4.35
4.88
5.32
5.63
5.75
5.66
5.37
4.99
4.63
4.35
4.14
3.95
3.75
3.54
3.33
3.12
2.89
2.59
2.19
1.75
1.37
1.14
1.10
1.15
1.12
0.83
0.21
-0.68
-1.65
-2.51
-3.13
-3.52
-3.81
-4.18
-4.77
-5.66
-6.82
-8.15
-9.51
-10.71
-11.56
-11.82
-11.28
-9.81
-7.47
-4.51
-1.36
1.53
3.83
5.42
6.43
7.12
7.76
8.46
9.18
9.73
9.93
9.70
9.10
8.31
7.56
7.01
6.73
6.70
6.81
6.93
6.99
6.95
6.81
6.59
6.29
5.88
5.34
4.67
3.93
3.14
2.38
1.68
1.04
0.44
-0.17
-0.83
-1.56
-2.38
-3.24
-4.13
-5.00
-5.90
-6.84
-7.87
-8.99
-10.13
-11.20
-12.08
-12.68
-12.93
-12.80
-12.18
-11.01
-9.28
-7.08
-4.58
-2.02
0.41
2.60
4.50
6.13
7.48
8.54
9.28
9.72
9.91
9.94
9.86
9.72
9.48
9.10
8.57
7.92
7.24
6.65
6.23
5.99
5.91
5.90
5.89
5.76
5.47
5.00
4.35
3.60
2.81
2.05
1.35
0.68
-0.02
-0.79
-1.70
-2.71
-3.78
-4.79
-5.65
-6.30
-6.79
-7.25
-7.86
-8.81
-10.14
-11.76
-13.38
-14.62
-15.17
-14.81
-13.56
-11.57
-9.10
-6.40
-3.71
-1.20
0.96
2.68
3.93
4.78
5.40
5.99
6.69
7.49
8.23
8.73
8.81
8.44
7.73
6.91
6.22
5.79
5.64
5.65
5.67
5.55
5.28
4.88
4.44
4.00
3.58
3.16
2.71
2.22
1.69
1.11
0.46
-0.30
-1.18
-2.14
-3.11
-4.02
-4.82
-5.53
-6.18
-6.84
-7.54
-8.33
-9.22
-10.23
-11.31
-12.37
-13.27
-13.85
-13.94
-13.41
-12.23
-10.44
-8.14
-5.55
-2.90
-0.44
1.66
3.32
4.56
5.45
6.11
6.62
7.07
7.52
7.99
8.46
8.86
9.07
8.97
8.53
7.82
7.02
6.36
5.98
5.92
6.08
6.26
6.30
6.11
5.67
5.06
4.36
3.64
2.93
2.26
1.61
0.99
0.39
-0.20
-0.79
-1.43
-2.13
-2.88
-3.65
-4.37
-4.97
-5.43
-5.79
-6.21
-6.86
-7.89
-9.32
-11.00
-12.62
-13.80
-14.26
-13.84
-12.61
-10.73
-8.45
-5.95
-3.38
-0.86
1.45
3.45
5.05
6.27
7.19
7.93
8.56
9.09
9.49
9.68
9.63
9.36
8.91
8.35
7.74
7.18
6.72
6.41
6.26
6.21
6.17
6.02
5.70
5.19
4.54
3.85
3.23
2.78
2.47
2.22
1.88
1.34
0.57
-0.39
-1.38
-2.26
-2.96
-3.49
-3.94
-4.40
-4.94
-5.62
-6.44
-7.42
-8.58
-9.91
-11.32
-12.64
-13.63
-14.05
-13.75
-12.69
-10.99
-8.84
-6.50
-4.18
-2.03
-0.13
1.53
2.99
4.28
5.38
6.25
6.85
7.16
7.22
7.13
6.94
6.67
6.32
5.92
5.52
5.25
5.18
5.30
5.47
5.49
5.21
4.62
3.84
3.11
2.61
2.41
2.43
2.52
2.49
2.21
1.61
0.69
-0.50
-1.83
-3.12
-4.20
-4.92
-5.32
-5.53
-5.77
-6.24
-7.03
-8.08
-9.27
-10.42
-11.34
-11.90
-11.99
-11.57
-10.63
-9.21
-7.39
-5.24
-2.91
-0.55
1.65
3.50
4.92
5.91
6.62
7.21
7.79
8.33
8.67
8.66
8.23
7.47
6.62
5.88
5.40
5.16
5.04
4.93
4.76
4.55
4.36
4.21
4.04
3.78
3.33
2.66
1.84
0.99
0.26
-0.26
-0.58
-0.80
-1.08
-1.55
-2.25
-3.16
-4.13
-5.02
-5.74
-6.29
-6.81
-7.47
-8.46
-9.83
-11.48
-13.16
-14.51
-15.17
-14.90
-13.61
-11.42
-8.57
-5.38
-2.17
0.74
3.11
4.79
5.78
6.24
6.45
6.66
7.03
7.58
8.14
8.53
8.61
8.37
7.93
7.42
6.96
6.58
6.28
6.04
5.91
5.92
6.06
6.24
6.30
6.08
5.49
4.58
3.53
2.53
1.71
1.10
0.61
0.13
-0.47
-1.21
-2.04
-2.87
-3.59
-4.18
-4.68
-5.19
-5.81
-6.59
-7.51
-8.49
-9.47
-10.44
-11.45
-12.51
-13.52
-14.29
-14.55
-14.05
-12.72
-10.62
-8.03
-5.25
-2.58
-0.19
1.86
3.58
5.02
6.19
7.08
7.67
7.96
8.00
7.92
7.85
7.89
8.03
8.19
8.20
7.97
7.47
6.85
6.28
5.93
5.85
6.00
6.23
6.34
6.20
5.74
5.02
4.18
3.38
2.76
2.31
1.95
1.45
0.67
-0.41
-1.67
-2.89
-3.89
-4.62
-5.18
-5.67
-6.20
-6.78
-7.44
-8.23
-9.26
-10.59
-12.18
-13.81
-15.12
-15.76
-15.52
-14.38
-12.49
-10.10
-7.47
-4.81
-2.25
0.09
2.13
3.79
5.01
5.75
6.06
6.07
5.99
6.02
6.28
6.73
7.16
7.35
7.15
6.56
5.73
4.88
4.22
3.82
3.68
3.67
3.65
3.47
3.07
2.46
1.77
1.14
0.67
0.36
0.15
-0.06
-0.33
-0.65
-0.97
-1.30
-1.70
-2.29
-3.16
-4.28
-5.53
-6.75
-7.86
-8.89
-9.90
-10.93
-11.89
-12.55
-12.62
-11.91
-10.33
-8.02
-5.23
-2.31
0.43
2.76
4.58
5.95
6.94
7.71
8.32
8.78
9.04
9.03
8.74
8.25
7.72
7.30
7.06
6.98
6.94
6.82
6.55
6.21
5.90
5.76
5.79
5.92
5.98
5.83
5.39
4.73
3.95
3.19
2.54
2.00
1.53
1.02
0.43
-0.24
-0.96
-1.71
-2.49
-3.30
-4.18
-5.10
-6.04
-6.97
-7.93
-8.96
-10.14
-11.44
-12.74
-13.78
-14.23
-13.82
-12.44
-10.22
-7.46
-4.56
-1.83
0.50
2.39
3.87
5.04
5.96
6.66
7.14
7.45
7.61
7.71
7.79
7.87
7.92
7.89
7.72
7.42
7.02
6.59
6.25
6.08
6.11
6.28
6.47
6.53
6.34
5.82
4.99
3.96
2.88
1.92
1.23
0.82
0.59
0.36
-0.04
-0.70
-1.58
-2.57
-3.57
-4.51
-5.40
-6.28
-7.20
-8.16
-9.17
-10.23
-11.36
-12.54
-13.70
-14.64
-15.10
-14.85
-13.78
-11.96
-9.60
-6.99
-4.41
-2.05
-0.02
1.70
3.17
4.45
5.58
6.55
7.31
7.80
7.99
7.86
7.44
6.81
6.10
5.45
5.00
4.78
4.77
4.85
4.90
4.84
4.66
4.40
4.10
3.76
3.33
2.78
2.07
1.25
0.38
-0.50
-1.32
-2.03
-2.58
-2.86
-2.84
-2.56
-2.17
-1.87
-1.80
-1.99
-2.33
-2.67
-2.93
-3.21
-3.72
-4.66
-6.07
-7.80
-9.49
-10.73
-11.19
-10.74
-9.44
-7.53
-5.31
-3.04
-0.94
0.89
2.41
3.63
4.54
5.15
5.48
5.55
5.42
5.17
4.88
4.63
4.50
4.57
4.83
5.21
5.54
5.65
5.42
4.90
4.23
3.64
3.27
3.12
3.07
2.97
2.72
2.34
1.92
1.56
1.22
0.81
0.16
-0.82
-2.11
-3.56
-4.96
-6.11
-6.87
-7.24
-7.36
-7.44
-7.74
-8.45
-9.61
-11.13
-12.81
-14.42
-15.74
-16.56
-16.71
-16.01
-14.38
-11.82
-8.53
-4.86
-1.23
1.99
4.62
6.67
8.27
9.57
10.69
11.64
12.36
12.81
12.97
12.87
12.57
12.12
11.57
10.95
10.33
9.79
9.45
9.36
9.54
9.89
10.26
10.46
10.34
9.83
8.96
7.84
6.63
5.52
4.63
3.96
3.41
2.77
1.84
0.51
-1.12
-2.82
-4.30
-5.37
-6.03
-6.46
-6.95
-7.75
-8.98
-10.62
-12.48
-14.26
-15.58
-16.04
-15.33
-13.36
-10.33
-6.76
-3.27
-0.44
1.50
2.64
3.32
3.84
4.30
4.63
4.73
4.57
4.32
4.27
4.60
5.33
6.23
7.01
7.42
7.43
7.15
6.81
6.56
6.43
6.36
6.21
5.94
5.60
5.29
5.10
5.00
4.89
4.64
4.19
3.57
2.91
2.29
1.72
1.12
0.41
-0.43
-1.32
-2.13
-2.78
-3.34
-3.94
-4.75
-5.80
-7.05
-8.38
-9.68
-10.90
-11.99
-12.91
-13.54
-13.73
-13.33
-12.27
-10.59
-8.39
-5.86
-3.20
-0.62
1.75
3.78
5.48
6.87
8.04
9.04
9.85
10.41
10.64
10.52
10.11
9.53
8.91
8.37
7.98
7.75
7.68
7.75
7.94
8.19
8.43
8.56
8.47
8.11
7.45
6.55
5.49
4.38
3.33
2.37
1.53
0.75
-0.03
-0.92
-1.91
-2.98
-4.02
-4.93
-5.71
-6.45
-7.28
-8.31
-9.52
-10.77
-11.80
-12.34
-12.22
-11.36
-9.81
-7.71
-5.26
-2.69
-0.20
2.02
3.82
5.13
5.96
6.39
6.50
6.40
6.17
5.87
5.49
5.06
4.61
4.19
3.87
3.70
3.66
3.68
3.67
3.55
3.28
2.89
2.45
2.01
1.61
1.20
0.75
0.19
-0.50
-1.33
-2.26
-3.24
-4.23
-5.17
-6.02
-6.79
-7.52
-8.32
-9.30
-10.53
-11.98
-13.49
-14.80
-15.64
-15.78
-15.14
-13.74
-11.70
-9.20
-6.42
-3.57
-0.86
1.54
3.53
5.08
6.26
7.17
7.95
8.65
9.23
9.60
9.69
9.44
8.92
8.23
7.47
6.70
5.95
5.22
4.60
4.19
4.07
4.21
4.46
4.57
4.35
3.75
2.88
1.93
1.05
0.27
-0.52
-1.43
-2.52
-3.71
-4.89
-5.94
-6.88
-7.79
-8.83
-10.07
-11.45
-12.78
-13.81
-14.30
-14.14
-13.35
-12.02
-10.29
-8.24
-5.96
-3.50
-0.97
1.45
3.56
5.21
6.34
6.98
7.27
7.32
7.25
7.11
6.94
6.75
6.53
6.28
6.01
5.73
5.47
5.25
5.06
4.87
4.65
4.35
3.94
3.41
2.73
1.87
0.81
-0.41
-1.70
-2.92
-3.99
-4.90
-5.80
-6.83
-8.06
-9.39
-10.58
-11.36
-11.49
-10.88
-9.59
-7.75
-5.54
-3.12
-0.64
1.73
3.86
5.65
7.02
7.96
8.52
8.78
8.83
8.77
8.60
8.32
7.88
7.30
6.60
5.87
5.16
4.48
3.79
3.07
2.35
1.71
1.26
1.02
0.90
0.78
0.50
-0.02
-0.75
-1.61
-2.53
-3.48
-4.51
-5.67
-6.97
-8.40
-9.87
-11.29
-12.52
-13.40
-13.77
-13.48
-12.46
-10.76
-8.48
-5.85
-3.10
-0.44
1.97
4.01
5.63
6.84
7.70
8.31
8.77
9.16
9.50
9.79
9.99
10.05
9.94
9.64
9.18
8.62
8.02
7.44
6.90
6.32
5.57
4.50
3.05
1.28
-0.63
-2.39
-3.79
-4.72
-5.24
-5.46
-5.55
-5.58
-5.61
-5.66
-5.77
-5.95
-6.20
-6.45
-6.58
-6.50
-6.19
-5.74
-5.33
-5.14
-5.29
-5.82
-6.71
-7.93
-9.38
-10.94
-12.42
-13.53
-13.98
-13.56
-12.21
-10.05
-7.35
-4.45
-1.68
0.71
2.56
3.86
4.70
5.25
5.68
6.13
6.65
7.17
7.57
7.75
7.68
7.46
7.20
7.02
6.96
6.96
6.95
6.90
6.84
6.83
6.93
7.14
7.37
7.49
7.35
6.89
6.08
5.01
3.85
2.82
2.14
1.94
2.21
2.80
3.46
3.95
4.10
3.85
3.22
2.29
1.12
-0.23
-1.70
-3.21
-4.69
-6.05
-7.26
-8.29
-9.09
-9.64
-9.87
-9.67
-8.96
-7.69
-5.91
-3.74
-1.40
0.87
2.88
4.51
5.73
6.55
6.97
7.00
6.65
6.02
5.29
4.65
4.20
3.95
3.78
3.57
3.27
2.91
2.60
2.41
2.33
2.27
2.13
1.83
1.39
0.89
0.37
-0.14
-0.62
-1.09
-1.54
-1.96
-2.37
-2.83
-3.40
-4.13
-4.97
-5.85
-6.61
-7.15
-7.39
-7.35
-7.11
-6.79
-6.55
-6.54
-6.86
-7.55
-8.55
-9.70
-10.75
-11.41
-11.43
-10.63
-9.00
-6.69
-3.98
-1.19
1.40
3.61
5.44
6.96
8.31
9.58
10.79
11.87
12.73
13.30
13.56
13.57
13.43
13.22
12.96
12.66
12.30
11.92
11.59
11.37
11.33
11.44
11.61
11.70
11.60
11.22
10.54
9.57
8.36
6.99
5.51
4.03
2.62
1.31
0.10
-1.07
-2.30
-3.64
-5.12
-6.64
-8.07
-9.26
-10.14
-10.75
-11.20
-11.68
-12.31
-13.13
-14.02
-14.77
-15.15
-14.97
-14.15
-12.72
-10.81
-8.57
-6.17
-3.73
-1.38
0.76
2.61
4.12
5.34
6.37
7.31
8.19
8.92
9.37
9.41
9.03
8.36
7.61
6.98
6.54
6.26
6.05
5.86
5.71
5.66
5.76
5.95
6.11
6.12
5.96
5.72
5.55
5.53
5.63
5.71
5.58
5.14
4.44
3.62
2.84
2.17
1.58
0.96
0.21
-0.74
-1.90
-3.23
-4.66
-6.10
-7.43
-8.50
-9.16
-9.30
-8.88
-7.96
-6.62
-5.00
-3.25
-1.50
0.10
1.46
2.49
3.20
3.63
3.82
3.84
3.74
3.57
3.33
3.04
2.70
2.33
1.99
1.71
1.50
1.34
1.16
0.91
0.56
0.17
-0.17
-0.39
-0.49
-0.55
-0.68
-0.98
-1.52
-2.28
-3.20
-4.21
-5.23
-6.21
-7.10
-7.88
-8.57
-9.21
-9.84
-10.51
-11.20
-11.86
-12.39
-12.70
-12.71
-12.35
-11.57
-10.36
-8.75
-6.80
-4.59
-2.24
0.12
2.36
4.33
5.91
6.98
7.48
7.48
7.15
6.77
6.54
6.56
6.72
6.85
6.76
6.38
5.80
5.22
4.81
4.63
4.64
4.66
4.57
4.28
3.83
3.28
2.69
2.12
1.60
1.17
0.84
0.56
0.23
-0.30
-1.12
-2.22
-3.50
-4.81
-6.04
-7.18
-8.30
-9.51
-10.81
-12.13
-13.26
-13.98
-14.14
-13.65
-12.59
-11.10
-9.38
-7.61
-5.93
-4.39
-2.96
-1.61
-0.27
1.02
2.19
3.17
3.89
4.36
4.64
4.82
4.91
4.87
4.63
4.11
3.37
2.56
1.91
1.63
1.80
2.30
2.92
3.38
3.48
3.17
2.49
1.55
0.42
-0.84
-2.21
-3.63
-4.99
-6.15
-6.96
-7.39
-7.50
-7.48
-7.47
-7.57
-7.70
-7.69
-7.33
-6.51
-5.27
-3.79
-2.29
-0.96
0.16
1.09
1.91
2.67
3.34
3.86
4.22
4.47
4.71
5.04
5.43
5.79
6.00
6.02
5.94
5.95
6.25
6.90
7.79
8.70
9.41
9.76
9.67
9.19
8.35
7.25
6.03
4.83
3.82
3.08
2.58
2.16
1.65
0.92
-0.01
-0.95
-1.64
-1.86
-1.51
-0.68
0.44
1.59
2.61
3.42
4.07
4.61
5.04
5.28
5.20
4.72
3.87
2.79
1.70
0.76
0.01
-0.61
-1.25
-2.05
-3.05
-4.22
-5.42
-6.53
-7.39
-7.94
-8.16
-8.16
-8.07
-8.04
-8.18
-8.49
-8.94
-9.51
-10.18
-10.92
-11.63
-12.09
-11.99
-11.04
-9.17
-6.57
-3.64
-0.82
1.54
3.35
4.67
5.68
6.50
7.12
7.50
7.54
7.23
6.62
5.82
4.95
4.12
3.42
2.87
2.48
2.23
2.07
1.96
1.81
1.54
1.04
0.25
-0.85
-2.15
-3.55
-4.90
-6.17
-7.40
-8.66
-9.98
-11.32
-12.53
-13.52
-14.22
-14.70
-15.02
-15.22
-15.27
-15.09
-14.66
-14.05
-13.46
-13.13
-13.24
-13.89
-15.08
-16.75
-18.86
-21.30
-24.03
-27.07
-30.52
-34.46
-38.86
-43.51
-47.92
-51.41
-53.21
-52.73
-49.75
-44.55
-37.79
-30.24
-22.65
-15.49
-8.94
-2.77
3.31
9.37
15.14
20.01
23.29
24.38
23.06
19.53
14.75
9.84
5.58
2.26
-0.20
-1.95
-3.09
-3.73
-3.96
-3.10
-0.57
3.57
8.60
13.56
17.77
21.01
23.38
25.15
27.94
33.12
41.03
50.77
61.04
70.92
80.00
88.07
94.95
102.16
111.21
122.76
136.36
151.10
166.22
180.95
194.35
195.06
175.94
138.06
90.63
43.85
3.02
-31.23
-59.87
-83.16
-100.05
-107.71
-104.81
-93.25
-77.84
-63.82
-54.34
-49.65
-48.40
-48.87
-48.65
-46.49
-42.66
-38.58
-35.54
-33.86
-33.05
-32.48
-31.84
-30.47
-28.17
-25.17
-22.17
-19.78
-18.11
-16.89
-15.81
-14.74
-13.38
-11.62
-9.62
-7.74
-6.30
-5.37
-4.78
-4.39
-4.10
-3.76
-3.32
-2.83
-2.43
-2.18
-2.01
-1.77
-1.34
-0.70
0.03
0.67
1.05
1.12
0.96
0.74
0.63
0.68
0.87
1.09
1.22
1.24
1.19
1.12
1.09
1.13
1.21
1.28
1.31
1.27
1.16
0.99
0.77
0.52
0.22
-0.07
-0.26
-0.23
0.12
0.75
1.53
2.22
2.60
2.57
2.18
1.56
0.89
0.26
-0.26
-0.67
-0.96
-1.13
-1.22
-1.29
-1.42
-1.64
-1.91
-2.15
-2.24
-2.16
-1.96
-1.71
-1.53
-1.48
-1.58
-1.82
-2.17
-2.54
-2.84
-2.95
-2.76
-2.31
-1.71
-1.13
-0.76
-0.66
-0.77
-0.95
-1.02
-0.90
-0.61
-0.28
-0.04
0.03
-0.04
-0.19
-0.30
-0.32
-0.25
-0.13
0.02
0.22
0.50
0.90
1.38
1.87
2.24
2.43
2.42
2.26
1.99
1.66
1.27
0.82
0.36
-0.03
-0.30
-0.42
-0.47
-0.55
-0.75
-1.06
-1.40
-1.66
-1.71
-1.52
-1.11
-0.58
-0.08
0.22
0.22
-0.11
-0.67
-1.31
-1.84
-2.09
-2.04
-1.78
-1.46
-1.22
-1.12
-1.13
-1.18
-1.20
-1.14
-1.04
-0.92
-0.84
-0.81
-0.91
-1.15
-1.56
