1478931701.00
64.000000
-0.00
-0.00
-0.00
-0.00
-0.00
-0.00
-0.00
-0.00
-0.00
-0.00
0.00
0.01
0.01
-0.00
-0.03
-0.05
-0.05
0.00
0.13
0.36
0.66
1.01
1.37
1.72
2.06
2.40
2.79
3.24
3.80
4.42
5.06
5.66
6.20
6.68
7.15
7.68
8.31
9.14
10.09
11.04
11.89
12.57
13.14
13.76
14.65
15.96
17.91
20.32
22.92
25.42
27.63
29.61
31.65
34.18
37.51
42.06
47.48
53.28
58.89
63.94
68.47
72.94
78.02
84.24
92.15
101.26
110.80
119.89
127.92
134.86
141.29
148.50
155.19
163.70
174.68
188.30
203.37
216.89
224.39
221.09
203.54
170.90
125.70
71.98
14.25
-44.24
-102.08
-159.27
-216.22
-272.79
-328.09
-380.39
-428.37
-471.01
-507.63
-537.55
-559.80
-573.08
-575.89
-567.10
-546.11
-513.65
-471.36
-421.67
-367.27
-310.73
-254.29
-199.88
-149.22
-103.57
-63.53
-28.40
3.79
35.80
70.14
107.97
148.62
189.71
228.11
260.90
286.12
302.95
311.48
312.29
306.29
294.67
278.82
260.34
240.69
220.99
201.86
183.44
165.55
148.01
130.81
114.26
98.89
85.17
73.37
63.43
55.00
47.61
40.81
34.33
28.10
22.27
16.91
12.08
7.82
4.17
1.16
-1.19
-2.90
-4.06
-4.87
-5.54
-6.25
-7.00
-7.71
-8.23
-8.46
-8.44
-8.33
-8.36
-8.68
-9.34
-10.21
-11.10
-11.81
-12.18
-12.12
-11.60
-10.67
-9.46
-8.11
-6.75
-5.48
-4.35
-3.37
-2.54
-1.85
-1.25
-0.78
-0.48
-0.44
-0.74
-1.41
-2.36
-3.40
-4.25
-4.66
-4.46
-3.64
-2.32
-0.69
1.02
2.61
3.95
5.00
5.77
6.34
6.77
7.07
7.22
7.13
6.72
5.95
4.84
3.47
1.96
0.49
-0.71
-1.30
-0.98
0.43
2.73
5.29
7.09
7.07
4.49
-0.75
-8.16
-16.86
-25.95
-34.51
-41.68
-46.45
-47.76
-44.79
-37.51
-26.95
-15.06
-4.12
4.13
8.96
10.82
10.79
10.02
9.24
8.55
7.65
6.07
3.53
0.20
-3.30
-6.02
-6.97
-5.49
-1.53
4.29
10.82
16.88
21.52
24.28
25.12
24.26
22.03
18.85
15.18
11.58
8.65
6.75
5.91
5.73
5.51
4.63
2.73
-0.06
-3.28
-6.38
-9.01
-11.17
-13.06
-14.90
-16.65
-17.99
-18.46
-17.84
-16.17
-13.84
-11.44
-9.44
-8.12
-7.54
-7.76
-8.92
-11.25
-14.70
-18.95
-23.39
-27.39
-30.56
-32.93
-34.90
-36.82
-38.55
-38.94
-36.17
-28.41
-14.57
5.23
29.62
56.49
83.70
107.82
125.97
136.33
138.40
133.12
122.61
109.80
97.67
88.49
83.19
81.37
81.37
80.76
77.04
68.28
53.58
33.33
8.95
-17.52
-43.93
-68.56
-90.16
-107.70
-120.03
-125.60
-122.72
-110.10
-87.48
-56.02
-18.56
20.73
56.45
82.68
94.03
87.20
62.29
23.50
-22.14
-67.95
-108.58
-140.67
-162.45
-173.03
-171.81
-158.92
-136.11
-107.31
-78.03
-53.52
-36.99
-28.67
-26.33
-26.67
-26.83
-25.47
-22.96
-20.37
-18.33
-15.97
-11.15
-1.81
12.55
29.97
46.31
56.97
59.41
54.53
46.77
41.81
43.49
51.97
63.78
73.61
76.77
71.28
57.48
38.99
21.75
10.74
7.35
9.80
15.30
20.63
25.88
31.56
37.64
43.05
45.73
43.68
36.38
25.04
12.29
1.25
-6.08
-9.07
-8.57
-6.47
-4.71
-4.43
-5.78
-8.18
-10.74
-13.01
-14.78
-16.06
-17.07
-17.99
-18.81
-19.39
-19.52
-18.97
-17.76
-16.02
-13.96
-11.86
-10.02
-8.66
-7.86
-7.60
-7.70
-7.98
-8.22
-8.22
-7.87
-7.23
-6.44
-5.68
-5.09
-4.74
-4.61
-4.68
-4.94
-5.38
-6.00
-6.75
-7.53
-8.21
-8.65
-8.76
-8.53
-8.04
-7.38
-6.67
-6.01
-5.50
-5.17
-5.02
-4.91
-4.71
-4.28
-3.57
-2.69
-1.83
-1.22
-1.04
-1.32
-1.98
-2.87
-3.77
-4.51
-4.91
-4.88
-4.39
-3.52
-2.51
-1.66
-1.26
-1.48
-2.31
-3.54
-4.90
-6.18
-7.28
-8.28
-9.28
-10.31
-11.31
-12.08
-12.41
-12.18
-11.41
-10.24
-8.92
-7.67
-6.57
-5.50
-4.19
-2.31
0.31
3.56
7.01
10.07
12.18
13.04
12.65
11.33
9.55
7.77
6.39
5.67
5.73
6.51
7.81
9.26
10.47
11.10
10.97
10.09
8.61
6.78
4.80
2.90
1.22
-0.10
-1.00
-1.48
-1.64
-1.62
-1.60
-1.73
-2.04
-2.50
-3.03
-3.60
-4.19
-4.86
-5.62
-6.41
-7.15
-7.72
-8.08
-8.28
-8.42
-8.58
-8.73
-8.67
-8.08
-6.69
-4.29
-0.94
3.11
7.47
11.70
15.44
18.40
20.48
21.66
22.03
21.73
20.97
19.94
18.81
17.71
16.71
15.80
14.94
14.05
13.08
12.00
10.81
9.52
8.15
6.76
5.43
4.28
3.38
2.76
2.33
1.95
1.45
0.68
-0.38
-1.70
-3.16
-4.64
-5.94
-6.88
-7.28
-6.99
-5.96
-4.28
-2.14
0.16
2.35
4.20
5.53
6.28
6.46
6.11
5.36
4.33
3.15
1.90
0.67
-0.48
-1.46
-2.18
-2.52
-2.44
-2.02
-1.42
-0.91
-0.71
-0.90
-1.39
-2.01
-2.54
-2.90
-3.10
-3.25
-3.45
-3.75
-4.14
-4.62
-5.18
-5.83
-6.49
-6.99
-7.02
-6.32
-4.70
-2.23
0.79
3.93
6.77
9.01
10.55
11.40
11.62
11.24
10.27
8.71
6.67
4.33
1.99
-0.10
-1.75
-2.89
-3.62
-4.05
-4.34
-4.56
-4.71
-4.81
-4.88
-5.00
-5.23
-5.62
-6.17
-6.82
-7.46
-8.01
-8.40
-8.68
-8.96
-9.42
-10.19
-11.31
-12.69
-14.08
-15.14
-15.52
-15.01
-13.57
-11.33
-8.57
-5.62
-2.79
-0.29
1.80
3.52
4.92
6.04
6.79
7.02
6.53
5.21
3.26
1.17
-0.49
-1.33
-1.33
-0.85
-0.54
-1.09
-2.82
-5.42
-7.99
-9.52
-9.44
-7.89
-5.73
-4.19
-4.49
-7.17
-11.78
-16.82
-20.56
-21.83
-20.39
-16.91
-12.67
-9.23
-7.74
-8.57
-10.88
-13.20
-13.73
-10.28
-0.40
18.02
44.06
72.88
96.33
107.05
101.96
82.94
55.22
25.22
-1.61
-22.22
-35.63
-43.54
-46.96
-46.38
-42.21
-35.24
-26.79
-18.59
-12.36
-9.02
-9.03
-11.11
-13.51
-14.92
-14.96
-14.09
-13.23
-13.27
-14.46
-16.38
-17.70
-17.18
-14.06
-8.24
-0.18
9.26
18.98
27.76
34.24
37.15
35.21
27.56
14.75
-0.88
-15.52
-25.23
-27.56
-22.71
-13.31
-3.33
3.63
5.83
3.71
-0.74
-5.09
-7.50
-7.04
-3.62
2.29
9.91
18.26
26.32
33.24
38.50
41.93
43.73
44.41
44.79
45.86
48.48
52.83
58.22
63.11
65.64
64.41
59.17
50.89
41.35
32.28
24.68
18.47
12.73
6.19
-2.12
-12.52
-24.59
-37.24
-48.84
-57.53
-61.60
-60.18
-53.73
-44.27
-34.83
-28.50
-27.25
-31.29
-39.15
-48.49
-57.09
-63.62
-67.84
-70.20
-71.34
-71.59
-70.85
-68.70
-64.73
-58.69
-50.60
-40.66
-29.22
-16.66
-3.25
10.87
25.53
40.31
54.28
65.95
73.63
76.02
72.83
65.01
54.46
43.41
33.62
25.92
20.27
16.07
12.68
9.72
7.08
4.75
2.65
0.67
-1.25
-2.96
-4.14
-4.46
-3.90
-2.89
-2.26
-2.91
-5.31
-9.18
-13.39
-16.42
-17.01
-14.76
-10.32
-4.97
0.04
4.02
6.97
9.17
10.78
11.56
11.09
9.24
6.55
4.14
3.17
4.16
6.74
9.78
12.10
13.15
13.20
13.07
13.58
15.04
17.13
19.13
20.31
20.25
18.89
16.45
13.44
10.55
8.66
8.56
10.70
14.95
20.69
27.13
33.60
39.67
45.13
49.72
53.02
54.58
54.16
51.90
48.24
43.57
37.93
30.85
21.57
9.50
-5.26
-21.82
-38.60
-53.78
-65.78
-73.57
-77.02
-76.77
-74.01
-69.93
-65.34
-60.42
-54.84
-47.91
-39.05
-28.12
-15.69
-3.04
8.12
16.18
19.85
18.42
12.16
2.27
-9.34
-20.64
-30.09
-36.96
-41.25
-43.92
-46.39
-49.67
-53.78
-57.78
-60.15
-59.45
-54.80
-45.88
-33.75
-20.50
-8.36
1.49
9.41
17.34
27.88
43.09
63.51
86.39
106.22
117.01
114.88
99.52
74.13
43.60
10.04
-21.72
-46.66
-62.50
-70.61
-73.86
-75.06
-74.41
-71.51
-66.34
-58.90
-50.04
-40.88
-32.52
-25.50
-19.84
-15.03
-10.48
-5.53
0.72
8.16
15.79
22.36
27.29
30.92
34.24
38.13
42.88
48.17
52.67
54.66
52.86
47.23
39.02
30.43
23.86
21.21
23.42
29.83
38.34
46.10
50.66
50.70
46.48
39.45
31.49
24.17
18.11
13.01
8.09
2.77
-3.06
-9.03
-14.64
-19.56
-23.70
-27.14
-29.84
-31.50
-31.56
-29.48
-25.00
-18.38
-10.34
-1.80
6.41
13.76
20.00
25.06
28.95
31.67
33.22
33.62
32.89
31.06
28.22
24.55
20.53
16.79
14.01
12.56
12.34
12.71
12.69
11.26
7.71
1.82
-6.11
-15.37
-24.91
-33.65
-40.63
-45.26
-47.39
-47.30
-45.58
-42.85
-39.55
-35.89
-31.86
-27.43
-22.66
-17.75
-13.04
-8.83
-5.35
-2.67
-0.76
0.48
1.12
1.20
0.75
-0.22
-1.62
-3.33
-5.17
-6.99
-8.65
-10.08
-11.22
-12.03
-12.49
-12.58
-12.30
-11.69
-10.80
-9.67
-8.33
-6.75
-4.89
-2.60
0.31
4.07
8.80
14.40
20.51
26.47
31.54
35.10
36.87
36.98
35.87
34.08
32.03
29.90
27.70
25.31
22.73
20.06
17.54
15.39
13.67
12.26
10.86
9.14
6.86
3.91
0.34
-3.74
-8.24
-13.05
-18.01
-22.87
-27.22
-30.63
-32.74
-33.33
-32.34
-29.78
-25.76
-20.48
-14.36
-8.08
-2.42
1.97
4.78
6.18
6.67
6.85
7.06
7.35
7.53
7.39
6.88
6.13
5.31
4.48
3.55
2.33
0.67
-1.40
-3.63
-5.71
-7.35
-8.44
-9.06
-9.40
-9.72
-10.20
-10.94
-11.85
-12.75
-13.36
-13.39
-12.70
-11.34
-9.61
-7.92
-6.64
-5.95
-5.78
-5.80
-5.62
-4.89
-3.46
-1.42
1.02
3.54
5.89
7.92
9.58
10.96
12.30
13.99
16.57
20.55
26.21
33.36
41.26
48.80
54.86
58.71
60.24
59.88
58.37
56.46
54.67
53.29
52.49
52.35
52.87
53.98
55.47
57.02
58.27
58.92
58.74
57.59
55.40
52.12
47.70
42.05
35.06
26.65
16.89
6.08
-5.29
-16.54
-27.03
-36.25
-43.92
-49.98
-54.59
-58.01
-60.57
-62.65
-64.55
-66.49
-68.55
-70.69
-72.70
-74.32
-75.25
-75.20
-74.05
-71.85
-68.86
-65.53
-62.34
-59.61
-57.32
-55.11
-52.31
-48.20
-42.36
-34.85
-26.25
-17.52
-9.67
-3.48
0.65
2.72
3.00
1.83
-0.42
-3.39
-6.68
-9.84
-12.39
-13.92
-14.18
-13.06
-10.59
-6.92
-2.26
3.08
8.78
14.43
19.65
24.04
27.18
28.75
28.49
26.30
22.26
16.64
9.92
2.68
-4.37
-10.55
-15.29
-18.20
-19.19
-18.49
-16.61
-14.21
-11.92
-10.20
-9.30
-9.33
-10.29
-12.15
-14.85
-18.21
-22.02
-26.00
-29.90
-33.49
-36.51
-38.68
-39.73
-39.50
-38.14
-36.08
-33.93
-32.22
-31.13
-30.41
-29.41
-27.30
-23.33
-17.06
-8.47
1.98
13.36
24.50
34.17
41.45
45.93
47.84
47.85
46.85
45.65
44.72
44.19
43.92
43.63
43.05
41.98
40.36
38.18
35.47
32.27
28.56
24.37
19.76
14.79
9.46
3.57
-3.21
-11.24
-20.69
-31.36
-42.61
-53.52
-63.18
-70.83
-76.03
-78.64
-78.74
-76.63
-72.84
-68.01
-62.76
-57.49
-52.31
-47.07
-41.61
-36.00
-30.58
-25.77
-21.80
-18.55
-15.52
-12.14
-8.01
-3.04
2.58
8.65
15.01
21.61
28.32
34.78
40.48
44.84
47.53
48.64
48.68
48.39
48.44
49.21
50.60
52.16
53.29
53.49
52.49
50.39
47.49
44.24
41.08
38.31
36.11
34.47
33.11
31.57
29.22
25.53
20.35
14.04
7.45
1.63
-2.56
-4.75
-5.09
-4.06
-2.23
-0.03
2.29
4.55
6.46
7.72
8.07
7.54
6.52
5.68
5.76
7.26
10.23
14.31
18.82
23.05
26.52
29.09
30.95
32.43
33.78
35.04
35.94
36.12
35.24
33.23
30.23
26.53
22.37
17.76
12.55
6.55
-0.24
-7.52
-14.75
-21.35
-26.87
-31.06
-33.76
-34.79
-33.95
-31.11
-26.35
-20.18
-13.41
-7.03
-1.90
1.47
3.03
3.16
2.43
1.46
0.68
0.24
0.08
0.03
-0.03
-0.11
-0.06
0.26
0.94
1.94
3.12
4.30
5.36
6.27
7.02
7.60
7.94
7.98
7.64
6.91
5.79
4.28
2.35
-0.11
-3.20
-7.00
-11.40
-16.14
-20.82
-25.01
-28.42
-30.91
-32.64
-33.91
-35.15
-36.82
-39.37
-43.20
-48.62
-55.84
-64.94
-75.88
-88.46
-102.41
-117.34
-132.72
-147.79
-161.45
-172.25
-178.46
-178.39
-170.65
-154.62
-130.67
-100.30
-66.05
-31.15
0.99
27.46
46.40
57.43
61.70
61.40
59.16
57.26
57.19
59.37
63.33
67.98
71.96
74.03
73.34
69.70
63.61
56.15
48.67
42.37
37.96
35.51
34.66
34.77
35.29
35.85
36.22
36.28
35.95
35.16
33.92
32.33
30.59
28.95
27.61
26.66
26.04
25.63
25.24
24.76
24.12
23.35
22.46
21.40
20.05
18.30
16.11
13.58
10.96
8.57
6.72
5.58
5.16
5.32
5.79
6.33
6.72
6.86
6.72
6.34
5.86
5.46
5.35
5.70
6.54
7.81
9.28
10.67
11.78
12.51
12.93
13.13
13.11
12.72
11.69
9.75
6.81
2.97
-1.46
-6.15
-10.76
-15.00
-18.55
-20.92
-21.55
-19.95
-15.97
-10.00
-2.88
4.35
10.87
16.30
20.74
24.47
27.67
30.22
31.73
31.79
30.23
27.22
23.26
18.94
14.72
10.86
7.39
4.18
1.04
-2.12
-5.32
-8.48
-11.50
-14.28
-16.69
-18.55
-19.60
-19.56
-18.30
-15.95
-12.97
-10.01
-7.65
-6.17
-5.44
-5.05
-4.56
-3.74
-2.66
-1.58
-0.74
-0.27
-0.12
-0.14
-0.16
-0.06
0.29
1.06
2.48
4.74
7.94
11.91
16.33
20.76
24.91
28.66
32.15
35.56
39.04
42.56
45.93
48.94
51.50
53.77
56.04
58.58
61.39
64.04
65.67
65.18
61.52
54.08
42.94
28.89
13.34
-2.03
-15.64
-26.28
-33.33
-36.78
-37.23
-35.78
-33.85
-32.91
-34.06
-37.70
-43.23
-49.23
-53.95
-56.00
-54.89
-51.13
-45.88
-40.37
-35.49
-31.62
-28.85
-27.20
-26.60
-26.84
-27.41
-27.56
-26.65
-24.54
-21.72
-19.22
-18.02
-18.73
-21.25
-24.97
-29.04
-32.68
-35.31
-36.62
-36.48
-34.91
-31.96
-27.75
-22.44
-16.34
-9.93
-3.82
1.41
5.43
8.34
10.60
12.81
15.42
18.54
21.89
25.00
27.47
29.09
29.87
29.95
29.45
28.44
26.92
24.89
22.43
19.73
17.10
14.93
13.53
13.03
13.29
13.97
14.59
14.79
14.43
13.58
12.45
11.29
10.28
9.51
9.00
8.72
8.59
8.43
8.03
7.14
5.60
3.37
0.52
-2.81
-6.48
-10.36
-14.33
-18.24
-21.92
-25.15
-27.72
-29.47
-30.25
-29.98
-28.61
-26.17
-22.77
-18.59
-13.83
-8.65
-3.16
2.42
7.75
12.32
15.60
17.31
17.55
16.90
16.20
16.20
17.29
19.36
21.90
24.31
26.15
27.25
27.69
27.63
27.24
26.62
25.89
25.20
24.73
24.66
25.02
25.69
26.42
26.88
26.78
25.90
24.20
21.74
18.72
15.38
11.94
8.54
5.26
2.14
-0.74
-3.25
-5.26
-6.70
-7.66
-8.33
-8.94
-9.62
-10.34
-11.01
-11.54
-11.95
-12.38
-13.00
-13.86
-14.85
-15.75
-16.37
-16.68
-16.79
-16.88
-17.04
-17.17
-17.08
-16.52
-15.44
-13.93
-12.23
-10.64
-9.32
-8.38
-7.80
-7.59
-7.75
-8.28
-9.15
-10.27
-11.49
-12.65
-13.56
-14.04
-13.91
-13.04
-11.37
-8.95
-6.02
-2.86
0.27
3.19
5.86
8.26
10.34
11.91
12.74
12.68
11.74
10.18
8.40
6.83
5.76
5.29
5.34
5.71
6.21
6.67
7.00
7.13
7.03
6.70
6.16
5.45
4.63
3.73
2.76
1.74
0.65
-0.48
-1.55
-2.43
-2.96
-3.03
-2.57
-1.65
-0.38
1.04
2.44
3.65
4.57
5.18
5.50
5.54
5.34
4.89
4.26
3.55
2.96
2.76
3.11
4.06
5.42
6.80
7.68
7.52
5.85
2.38
-2.95
-9.88
-17.86
-26.10
-33.73
-39.96
-44.27
-46.46
-46.62
-45.03
-42.03
-37.93
-33.03
-27.68
-22.25
-17.12
-12.60
-8.85
-5.83
-3.34
-1.10
1.13
3.46
5.82
8.05
9.93
11.33
12.20
12.71
13.08
13.57
14.32
15.32
16.41
17.35
17.97
18.15
17.89
17.26
16.35
15.23
13.91
12.35
10.47
8.22
5.59
2.72
-0.22
-2.99
-5.42
-7.47
-9.22
-10.84
-12.49
-14.33
-16.48
-19.08
-22.28
-26.15
-30.60
-35.34
-39.91
-43.86
-46.93
-49.12
-50.64
-51.77
-52.70
-53.40
-53.58
-52.84
-50.68
-46.74
-40.85
-33.13
-23.95
-13.95
-3.87
5.58
13.90
20.82
26.36
30.68
34.02
36.65
38.82
40.72
42.50
44.17
45.72
47.06
48.16
49.09
50.07
51.39
53.32
56.04
59.49
63.45
67.51
71.22
74.25
76.44
77.88
78.81
79.45
79.79
79.62
78.51
76.12
72.36
67.43
61.73
55.53
48.84
41.42
32.85
22.77
10.96
-2.65
-17.99
-34.77
-52.28
-69.36
-84.48
-96.15
-103.51
-106.63
-106.54
-104.79
-102.77
-101.17
-99.82
-97.96
-94.71
-89.56
-82.53
-74.11
-65.01
-55.83
-46.99
-38.70
-31.08
-24.29
-18.54
-13.98
-10.61
-8.18
-6.23
-4.26
-1.92
0.85
3.82
6.66
9.04
10.86
12.27
13.56
14.97
16.59
18.29
19.73
20.60
20.76
20.27
19.38
18.37
17.42
16.55
15.65
14.64
13.57
12.63
12.08
12.07
12.57
13.40
14.32
15.13
15.78
16.29
16.77
17.26
17.79
18.30
18.75
19.09
19.29
19.34
19.21
18.85
18.22
17.29
16.06
14.59
12.95
11.16
9.15
6.72
3.60
-0.44
-5.48
-11.37
-17.77
-24.19
-30.16
-35.21
-39.00
-41.28
-42.02
-41.39
-39.74
-37.54
-35.11
-32.56
-29.76
-26.44
-22.44
-17.86
-13.03
-8.51
-4.77
-2.17
-0.85
-0.75
-1.68
-3.28
-5.09
-6.59
-7.33
-7.09
-5.98
-4.37
-2.78
-1.67
-1.27
-1.49
-1.94
-2.16
-1.69
-0.34
1.76
4.22
6.54
8.30
9.30
9.61
9.49
9.30
9.31
9.60
10.13
10.77
11.47
12.27
13.32
14.87
17.22
20.56
24.87
29.86
35.07
39.94
44.01
46.95
48.73
49.51
49.58
49.15
48.37
47.38
46.28
44.98
43.29
41.08
38.48
35.94
33.99
33.07
33.53
35.14
36.95
37.50
35.58
30.82
24.00
16.51
9.97
6.12
5.83
8.59
12.41
14.96
14.46
10.59
4.25
-2.60
-6.94
-6.14
0.74
12.48
26.38
39.13
47.78
49.67
39.64
16.17
-16.46
-49.41
-74.59
-88.14
-92.37
-90.46
-84.95
-77.78
-69.71
-61.41
-53.07
-46.14
-41.91
-40.79
-41.94
-43.97
-45.46
-44.77
-40.92
-34.24
-26.48
-19.82
-16.00
-15.56
-18.11
-22.54
-27.12
-30.32
-31.42
-30.77
-29.16
-27.25
-25.20
-22.92
-20.28
-17.15
-13.62
-10.10
-7.22
-5.39
-4.61
-4.36
-4.01
-2.93
-0.71
2.79
7.32
12.30
17.02
20.78
22.98
23.19
21.24
17.32
11.99
6.14
0.70
-3.55
-6.19
-7.26
-7.06
-6.01
-4.50
-2.83
-1.21
0.16
1.13
1.60
1.61
1.27
0.72
0.07
-0.65
-1.42
-2.18
-2.80
-3.10
-2.97
-2.39
-1.47
-0.40
0.67
1.68
2.72
3.93
5.43
7.20
9.05
10.64
11.68
12.00
11.72
11.25
11.16
12.01
14.07
17.25
21.10
24.97
28.29
30.76
32.48
33.84
35.40
37.63
40.87
45.22
50.43
55.73
59.73
60.58
56.54
46.70
31.58
13.15
-5.79
-22.57
-35.60
-44.67
-50.67
-54.88
-58.23
-60.98
-62.80
-63.20
-61.88
-58.94
-54.92
-50.61
-46.85
-44.25
-42.90
-42.37
-41.83
-40.43
-37.70
-33.65
-28.71
-23.32
-17.74
-12.27
-7.53
-4.68
-5.06
-9.28
-16.34
-23.56
-27.38
-25.09
-16.16
-2.63
11.84
23.76
31.24
34.44
34.92
34.43
34.09
34.24
34.89
36.23
38.75
42.89
48.54
54.90
60.69
64.82
66.90
67.48
67.72
68.81
71.29
74.80
78.20
80.09
79.48
76.12
70.66
64.37
58.84
55.56
55.57
58.91
64.36
69.32
70.50
65.10
52.05
32.67
10.28
-11.02
-27.97
-39.10
-44.68
-45.95
-44.04
-39.45
-32.23
-22.52
-11.06
0.89
11.93
21.06
27.92
32.68
35.75
37.40
37.63
36.15
32.49
26.18
17.01
5.14
-8.75
-23.54
-38.01
-51.14
-62.41
-71.89
-80.02
-87.28
-93.89
-99.55
-103.56
-105.10
-103.53
-98.64
-90.88
-81.21
-70.87
-61.09
-52.91
-46.77
-42.73
-40.54
-39.58
-38.80
-36.82
-32.36
-25.00
-15.52
-5.67
2.65
8.48
12.23
15.31
19.13
23.96
28.82
32.10
32.84
31.55
30.09
30.50
33.68
38.73
43.25
44.61
41.33
33.74
23.78
14.37
7.98
5.68
7.04
10.63
15.08
19.90
25.69
33.62
44.54
58.17
72.78
85.63
93.70
94.62
87.49
73.11
53.80
32.67
12.64
-4.39
-17.83
-28.11
-36.05
-42.12
-46.32
-48.42
-48.45
-47.01
-45.08
-43.54
-42.77
-42.53
-42.33
-41.73
-40.62
-39.20
-37.72
-36.33
-35.10
-34.02
-33.13
-32.41
-31.71
-30.64
-28.72
-25.57
-21.14
-15.83
-10.39
-5.70
-2.48
-1.20
-1.94
-4.61
-8.98
-14.86
-22.02
-30.12
-38.65
-47.02
-54.66
-61.20
-66.33
-69.71
-70.81
-68.88
-63.31
-54.08
-42.10
-29.06
-16.91
-7.18
-0.42
3.76
6.31
8.07
9.50
10.58
11.17
11.28
11.19
11.29
11.84
12.76
13.70
14.23
14.10
13.33
12.20
11.08
10.28
9.92
9.95
10.19
10.43
10.53
10.46
10.30
10.19
10.28
10.68
11.40
12.38
13.54
14.79
16.02
17.14
18.03
18.55
18.53
17.87
16.52
14.55
12.12
9.45
6.82
4.48
2.69
1.61
1.32
1.76
2.73
3.97
5.21
6.24
6.93
7.28
7.34
7.19
6.88
6.42
5.80
5.01
4.10
3.14
2.18
1.27
0.40
-0.48
-1.45
-2.59
-3.91
-5.38
-6.90
-8.37
-9.69
-10.83
-11.76
-12.49
-13.06
-13.57
-14.13
-14.85
-15.79
-16.88
-17.93
-18.65
-18.74
-17.98
-16.25
-13.59
-10.19
-6.33
-2.43
1.08
3.81
5.50
6.08
5.65
4.44
2.72
0.80
-1.04
-2.54
-3.50
-3.85
-3.63
-3.02
-2.28
-1.60
-1.13
-0.87
-0.75
-0.68
-0.56
-0.32
0.10
0.70
1.47
2.35
3.28
4.21
5.13
6.10
7.19
8.43
9.85
11.40
12.99
14.56
16.03
17.32
18.33
18.94
19.04
18.58
17.65
16.37
14.95
13.53
12.17
10.92
9.77
8.78
7.99
7.40
6.98
6.60
6.15
5.55
4.82
3.98
3.12
2.27
1.47
0.73
0.07
-0.50
-0.93
-1.22
-1.29
-1.10
-0.59
0.22
1.23
2.29
3.23
3.98
4.53
4.91
5.14
5.22
5.08
4.69
4.07
3.29
2.47
1.74
1.20
0.89
0.81
0.90
1.03
1.07
0.91
0.49
-0.17
-0.97
-1.80
-2.59
-3.28
-3.90
-4.45
-4.94
-5.36
-5.67
-5.83
-5.82
-5.59
-5.11
-4.35
-3.31
-2.06
-0.73
0.57
1.72
2.67
3.43
4.02
4.45
4.68
4.67
4.37
3.80
3.05
2.22
1.42
0.71
0.14
-0.29
-0.60
-0.81
-0.95
-1.04
-1.11
-1.17
-1.24
-1.32
-1.38
-1.38
-1.28
-1.09
-0.83
-0.57
-0.36
-0.20
-0.03
0.28
0.84
1.70
2.86
4.20
5.56
6.77
7.59
7.86
7.45
6.42
4.93
3.30
1.83
0.70
-0.08
-0.68
-1.28
-2.02
-2.87
-3.66
-4.17
-4.23
-3.80
-3.01
-2.08
-1.31
-1.01
-1.32
-2.24
-3.53
-4.76
-5.49
-5.40
-4.41
-2.71
-0.66
1.36
3.03
4.21
4.86
5.04
4.84
4.34
3.62
2.76
1.85
0.97
0.24
-0.20
-0.17
0.45
1.66
3.33
5.18
6.92
8.35
9.48
10.43
11.44
12.69
14.21
15.93
17.74
19.59
21.54
23.69
26.01
28.26
29.95
30.49
29.30
25.95
20.19
12.03
1.76
-9.92
-21.80
-32.22
-39.34
-41.65
-38.51
-30.43
-19.04
-6.57
4.83
13.68
19.36
22.07
22.56
21.79
20.78
20.39
21.19
23.33
26.50
30.16
33.80
37.29
40.94
45.32
50.87
57.56
64.85
72.04
78.52
83.95
88.16
90.83
91.28
88.50
81.48
69.66
53.28
33.50
12.08
-9.05
-28.34
-45.07
-59.25
-71.52
-82.67
-93.36
-104.00
-114.81
-125.84
-136.92
-147.29
-155.45
-159.35
-156.99
-147.32
-130.85
-109.66
-86.73
-64.96
-46.40
-31.90
-21.45
-14.60
-10.81
-9.47
-9.75
-10.54
-10.63
-9.10
-5.68
-0.85
4.41
9.07
12.52
14.76
16.30
17.78
19.53
21.39
22.71
22.77
21.14
17.95
13.89
9.96
7.06
5.69
5.75
6.66
7.61
7.83
6.80
4.34
0.59
-4.02
-8.96
-13.58
-17.30
-19.66
-20.47
-19.82
-18.06
-15.68
-13.07
-10.40
-7.58
-4.37
-0.57
3.85
8.75
13.96
19.43
25.17
31.16
37.10
42.37
46.13
47.64
46.48
42.71
36.78
29.30
20.91
12.08
3.11
-5.81
-14.59
-23.07
-30.84
-37.09
-40.62
-40.16
-35.07
-25.84
-14.34
-3.27
4.74
8.13
6.84
2.22
-3.76
-9.32
-13.40
-15.73
-16.52
-16.12
-14.76
-12.61
-9.88
-6.88
-4.04
-1.72
-0.11
0.88
1.59
2.49
3.93
6.07
8.71
11.49
14.04
16.22
18.16
20.27
22.91
26.25
30.03
33.67
36.43
37.70
37.19
35.04
31.72
27.85
24.09
20.87
18.47
16.92
16.09
15.75
15.66
15.61
15.50
15.30
15.08
14.91
14.85
14.93
15.14
15.42
15.63
15.57
15.01
13.73
11.64
8.80
5.41
1.75
-1.86
-5.17
-7.99
-10.25
-12.04
-13.47
-14.65
-15.61
-16.20
-16.18
-15.36
-13.68
-11.29
-8.47
-5.52
-2.69
-0.11
2.05
3.64
4.51
4.62
4.11
3.20
2.16
1.11
0.03
-1.19
-2.56
-4.00
-5.27
-6.12
-6.37
-5.99
-5.04
-3.72
-2.30
-1.14
-0.67
-1.21
-2.93
-5.66
-8.89
-11.98
-14.28
-15.33
-14.99
-13.41
-10.98
-8.17
-5.46
-3.24
-1.78
-1.17
-1.37
-2.25
-3.61
-5.26
-6.99
-8.67
-10.18
-11.46
-12.44
-13.05
-13.22
-12.92
-12.16
-11.04
-9.77
-8.58
-7.66
-7.09
-6.79
-6.55
-6.15
-5.38
-4.12
-2.30
0.08
3.03
6.47
10.26
14.13
17.76
20.82
23.06
24.46
25.13
25.33
25.26
25.07
24.73
24.12
23.12
21.62
19.63
17.24
14.67
12.13
9.84
7.95
6.49
5.36
4.39
3.33
2.01
0.32
-1.66
-3.74
-5.63
-7.03
-7.67
-7.38
-6.11
-3.95
-1.15
1.89
4.68
6.70
7.55
7.07
5.37
2.83
-0.06
-2.83
-5.16
-6.92
-8.09
-8.72
-8.88
-8.68
-8.25
-7.83
-7.61
-7.72
-8.12
-8.67
-9.18
-9.55
-9.81
-10.03
-10.24
-10.32
-10.04
-9.16
-7.54
-5.26
-2.49
0.53
3.59
6.55
9.30
11.71
13.62
14.84
15.24
14.82
13.74
12.25
10.66
9.20
7.97
6.93
5.97
4.99
3.97
2.92
1.91
0.99
0.16
-0.60
-1.35
-2.15
-3.10
-4.36
-6.01
-8.05
-10.24
-12.17
-13.36
-13.43
-12.23
-9.92
-6.85
-3.47
-0.23
2.52
4.52
5.67
5.96
5.51
4.46
3.04
1.44
-0.16
-1.59
-2.72
-3.47
-3.77
-3.63
-3.15
-2.57
-2.24
-2.53
-3.67
-5.57
-7.79
-9.64
-10.45
-9.85
-7.97
-5.41
-3.01
-1.52
-1.38
-2.59
-4.82
-7.58
-10.31
-12.50
-13.69
-13.50
-11.74
-8.52
-4.27
0.28
4.33
7.22
8.62
8.63
7.64
6.19
4.75
3.62
2.92
2.59
2.47
2.44
2.39
2.32
2.25
2.24
2.26
2.24
2.08
1.71
1.14
0.50
-0.05
-0.36
-0.38
-0.20
-0.04
-0.12
-0.65
-1.66
-3.02
-4.45
-5.69
-6.63
-7.36
-8.14
-9.18
-10.54
-11.95
-12.98
-13.18
-12.27
-10.23
-7.26
-3.67
0.23
4.15
7.75
10.65
12.49
13.09
12.59
11.40
10.07
8.99
8.26
7.64
6.80
5.49
3.78
2.01
0.61
-0.13
-0.21
0.12
0.51
0.70
0.60
0.31
-0.07
-0.40
-0.64
-0.74
-0.68
-0.44
-0.09
0.21
0.23
-0.28
-1.49
-3.40
-5.83
-8.42
-10.78
-12.55
-13.49
-13.57
-12.88
-11.66
-10.05
-8.11
-5.72
-2.70
1.06
5.50
10.27
14.88
18.82
21.75
23.54
24.28
24.10
23.11
21.38
19.01
16.23
13.42
10.99
9.24
8.16
7.47
6.77
5.72
4.22
2.47
0.78
-0.52
-1.29
-1.62
-1.71
-1.79
-2.03
-2.49
-3.13
-3.87
-4.64
-5.37
-6.03
-6.58
-7.05
-7.49
-7.98
-8.59
-9.33
-10.13
-10.82
-11.26
-11.44
-11.54
-11.85
-12.62
-13.85
-15.19
-16.05
-15.85
-14.25
-11.33
-7.55
-3.56
0.05
2.95
5.02
6.34
7.05
7.24
6.98
6.37
5.56
4.75
4.12
3.77
3.70
3.82
4.01
4.16
4.19
4.12
3.97
3.85
3.87
4.12
4.60
5.21
5.73
5.96
5.77
5.21
4.48
3.79
3.33
3.10
2.94
2.61
1.92
0.78
-0.75
-2.50
-4.30
-5.97
-7.38
-8.48
-9.27
-9.87
-10.41
-11.04
-11.88
-12.92
-14.04
-14.96
-15.35
-14.93
-13.54
-11.19
-8.11
-4.63
-1.12
2.14
4.96
7.27
9.02
10.14
10.58
10.30
9.41
8.14
6.84
5.77
5.09
4.75
4.58
4.38
4.02
3.51
2.94
2.46
2.19
2.17
2.36
2.66
2.92
2.98
2.69
1.96
0.77
-0.79
-2.53
-4.26
-5.77
-6.97
-7.85
-8.50
-9.05
-9.64
-10.35
-11.22
-12.33
-13.77
-15.68
-18.08
-20.86
-23.75
-26.38
-28.43
-29.74
-30.25
-29.93
-28.72
-26.49
-23.10
-18.49
-12.81
-6.43
0.15
6.44
11.98
16.47
19.75
21.74
22.54
22.33
21.38
20.05
18.69
17.56
16.81
16.43
16.23
15.99
15.56
14.87
14.04
13.25
12.64
12.29
12.16
12.13
12.04
11.74
11.08
9.94
8.24
5.96
3.20
0.15
-2.88
-5.57
-7.70
-9.18
-10.10
-10.75
-11.44
-12.43
-13.72
-15.10
-16.14
-16.37
-15.44
-13.23
-9.88
-5.76
-1.28
3.13
7.13
10.43
12.86
14.27
14.64
14.04
12.73
11.05
9.41
8.14
7.40
7.14
7.21
7.39
7.57
7.74
7.98
8.37
8.93
9.60
10.27
10.82
11.17
11.29
11.20
10.94
10.60
10.28
10.07
10.03
10.20
10.49
10.77
10.77
10.26
9.02
7.03
4.52
1.92
-0.25
-1.52
-1.67
-0.73
1.03
3.18
5.29
6.97
7.99
8.23
7.78
6.84
5.69
4.59
3.63
2.76
1.77
0.43
-1.40
-3.61
-5.93
-7.99
-9.45
-10.14
-10.09
-9.49
-8.61
-7.71
-6.99
-6.58
-6.56
-6.96
-7.70
-8.64
-9.55
-10.27
-10.75
-11.11
-11.53
-12.15
-12.87
-13.41
-13.37
-12.42
-10.46
-7.65
-4.32
-0.88
2.33
5.06
7.19
8.59
9.21
9.04
8.16
6.79
5.23
3.80
2.70
2.02
1.67
1.47
1.23
0.83
0.27
-0.43
-1.20
-2.01
-2.86
-3.75
-4.70
-5.74
-6.88
-8.09
-9.31
-10.43
-11.34
-11.99
-12.38
-12.58
-12.61
-12.39
-11.74
-10.48
-8.49
-5.86
-2.82
0.28
3.15
5.58
7.47
8.77
9.45
9.53
9.05
8.13
6.97
5.77
4.71
3.91
3.37
3.08
2.95
2.90
2.87
2.83
2.77
2.73
2.73
2.76
2.77
2.68
2.44
2.01
1.44
0.77
0.03
-0.81
-1.79
-2.86
-3.92
-4.74
-5.07
-4.71
-3.64
-2.01
-0.08
1.89
3.66
5.09
6.11
6.66
6.72
6.25
5.29
3.95
2.42
0.91
-0.39
-1.39
-2.07
-2.49
-2.77
-2.96
-3.09
-3.14
-3.11
-3.08
-3.14
-3.43
-4.02
-4.88
-5.88
-6.83
-7.58
-8.06
-8.38
-8.81
-9.66
-11.19
-13.42
-16.07
-18.55
-20.06
-19.89
-17.59
-13.21
-7.27
-0.59
5.97
11.70
16.20
19.30
21.00
21.37
20.47
18.47
15.70
12.64
9.87
7.86
6.88
6.85
7.43
8.14
8.55
8.41
7.65
6.42
4.90
3.24
1.56
-0.09
-1.66
-3.11
-4.43
-5.64
-6.84
-8.14
-9.56
-10.98
-12.10
-12.56
-12.02
-10.34
-7.62
-4.21
-0.58
2.80
5.58
7.56
8.70
9.08
8.83
8.11
7.07
5.84
4.57
3.35
2.27
1.43
0.87
0.60
0.56
0.63
0.64
0.49
0.18
-0.22
-0.57
-0.80
-0.91
-1.00
-1.16
-1.45
-1.83
-2.25
-2.67
-3.11
-3.65
-4.36
-5.24
-6.12
-6.78
-6.93
-6.37
-5.05
-3.07
-0.66
1.90
4.33
6.41
7.97
8.90
9.13
8.66
7.59
6.13
4.51
2.99
1.76
0.91
0.48
0.39
0.55
0.82
1.08
1.23
1.29
1.34
1.55
2.06
2.90
3.96
4.97
5.64
5.86
5.70
5.43
5.43
5.99
7.20
8.96
11.09
13.45
16.00
18.80
21.96
25.52
29.46
33.76
38.39
43.27
47.97
51.45
52.19
48.59
39.75
26.10
9.49
-7.42
-22.07
-32.98
-40.01
-44.05
-46.21
-47.24
-47.27
-46.16
-43.94
-41.06
-38.26
-36.14
-34.78
-33.71
-32.12
-29.33
-25.22
-20.27
-15.36
-11.33
-8.53
-6.65
-4.89
-2.31
1.72
7.26
13.82
20.63
26.91
32.18
36.33
39.49
41.93
43.83
45.23
46.04
46.13
45.44
44.00
41.96
39.46
36.62
33.52
30.19
26.67
23.09
19.57
16.21
13.01
9.90
6.72
3.31
-0.42
-4.52
-8.97
-13.74
-18.80
-24.12
-29.62
-35.11
-40.29
-44.79
-48.19
-50.19
-50.67
-49.67
-47.45
-44.32
-40.69
-36.97
-33.59
-30.85
-28.85
-27.26
-25.38
-22.32
-17.45
-10.78
-3.14
4.08
9.46
12.18
12.26
10.49
7.95
5.52
3.68
2.50
1.90
1.86
2.40
3.44
4.72
5.79
6.23
5.83
4.69
3.19
1.73
0.58
-0.19
-0.70
-1.08
-1.36
-1.36
-0.70
1.08
4.33
9.12
15.15
21.64
27.58
31.98
34.27
34.53
33.61
32.88
33.86
37.75
45.03
55.33
67.47
79.76
90.30
97.45
100.05
97.71
90.80
80.36
67.78
54.47
41.57
29.78
19.31
10.06
1.73
-6.03
-13.45
-20.58
-27.29
-33.28
-38.23
-41.89
-44.19
-45.29
-45.41
-44.74
-43.41
-41.57
-39.43
-37.46
-36.21
-36.14
-37.34
-39.44
-41.68
-43.26
-43.64
-42.75
-40.93
-38.69
-36.45
-34.40
-32.56
-30.85
-29.27
-27.94
-26.96
-26.38
-26.14
-26.01
-25.78
-25.34
-24.68
-23.96
-23.33
-22.88
-22.60
-22.39
-22.05
-21.39
-20.23
-18.50
-16.25
-13.70
-11.16
-8.96
-7.33
-6.31
-5.77
-5.48
-5.25
-5.03
-4.87
-4.83
-4.94
-5.10
-5.17
-5.03
-4.64
-4.12
-3.62
-3.36
-3.44
-3.87
-4.55
-5.34
-6.08
-6.68
-7.11
-7.42
-7.78
-8.18
-8.66
-9.23
-9.85
-10.46
-11.02
-11.49
-11.81
-11.99
-11.79
-11.09
-9.84
-8.11
-6.13
-4.19
-2.59
-1.52
-1.22
-1.42
-2.01
-2.92
-4.08
-5.44
-6.88
-8.29
-9.50
-11.02
-12.22
-13.19
-14.06
-14.95
-15.92
-16.95
-17.97
-18.89
-20.84
-22.61
-24.33
-26.19
-28.34
-30.80
-33.47
-36.17
-38.66
-42.65
-46.03
-48.90
-51.41
-53.70
-55.88
-57.97
-59.86
-61.29
-64.31
-65.87
-65.72
-63.87
-60.76
-57.18
-54.05
-52.12
-36.24
-25.24
-14.98
-4.22
7.82
21.22
35.28
48.80
60.53
69.62
73.36
74.59
73.81
71.58
68.43
64.75
60.81
56.83
53.04
47.79
43.26
39.37
35.84
32.36
28.59
24.32
19.57
14.67
8.95
4.11
0.34
-2.43
-4.29
-5.60
-7.14
-9.70
-13.82
-20.06
-27.27
-34.73
-41.76
-47.62
-52.43
-57.21
-63.04
-70.15
-77.72
-83.70
-86.40
-84.86
-78.29
-67.02
-52.29
-35.32
-16.62
3.96
26.63
51.30
77.74
106.80
138.49
170.90
200.40
222.54
233.43
230.89
215.28
183.17
138.58
92.14
54.79
30.88
17.59
9.65
3.18
-2.89
-7.62
-8.59
-5.08
0.57
5.60
8.10
8.01
6.73
6.09
7.32
11.14
16.38
20.37
20.43
15.23
5.71
-5.94
-17.31
-26.67
-33.03
-36.85
-39.63
-42.84
-46.99
-51.27
-54.01
-53.47
-48.52
-38.85
-25.42
-10.25
4.33
16.46
25.31
31.01
34.32
36.09
37.00
37.19
36.48
34.60
31.50
27.43
22.72
17.63
12.18
6.24
-0.25
-7.11
-13.82
-19.63
-23.86
-26.14
-26.58
-25.75
-24.53
-23.79
-24.21
-26.09
-29.30
-33.43
-37.80
-41.72
-44.55
-45.94
-45.80
-44.31
-41.77
-38.50
-34.73
-30.64
-26.43
-22.31
-18.55
-15.28
-12.50
-10.03
-7.59
-4.94
-1.95
1.35
4.80
8.10
10.87
12.69
13.27
12.54
10.75
8.43
6.19
4.56
3.76
3.69
4.03
4.40
4.50
4.19
3.49
2.56
1.60
0.82
0.36
0.27
0.54
1.12
1.95
2.99
4.17
5.37
6.41
7.09
7.23
6.80
5.92
4.84
3.84
3.14
2.84
2.87
3.07
3.24
3.26
3.17
3.10
3.26
3.77
4.62
5.60
6.37
6.55
5.92
4.48
2.49
0.41
-1.20
-1.89
-1.43
0.15
2.61
5.63
8.90
12.20
15.32
18.08
20.17
21.24
20.99
19.26
16.14
11.93
6.98
1.60
-4.04
-9.88
-15.95
-22.23
-28.61
-34.91
-40.85
-46.13
-50.49
-53.78
-55.97
-57.24
-58.00
-58.86
-60.49
-63.42
-67.82
-73.29
-78.96
-83.81
-87.01
-88.40
-88.53
-88.56
-89.70
-92.80
-97.94
-104.37
-110.64
-114.93
-115.36
-110.44
-99.41
-82.45
-60.82
-36.64
-12.43
9.51
27.58
41.14
50.41
56.17
59.36
60.85
61.32
61.15
60.51
59.34
57.41
54.42
50.22
44.94
39.15
33.73
29.72
27.91
28.58
31.41
35.58
40.04
43.84
46.42
47.72
48.03
47.79
47.40
47.02
46.59
45.93
44.82
43.14
40.83
37.92
34.41
30.39
25.98
21.46
17.28
13.99
12.09
11.91
13.49
16.50
20.42
24.56
28.35
31.32
33.22
33.99
33.69
32.52
30.71
28.50
26.06
23.55
21.11
18.99
17.50
16.85
17.04
17.69
18.17
17.74
16.00
13.01
9.38
6.02
3.88
3.70
5.87
10.30
16.35
22.79
28.02
30.54
29.50
25.11
18.76
12.43
8.05
6.68
8.24
11.73
15.75
19.11
21.13
21.66
20.83
18.88
16.01
12.50
8.73
5.26
2.63
1.25
1.16
1.98
3.09
3.78
3.55
2.21
-0.06
-2.85
-5.60
-7.82
-9.18
-9.58
-9.14
-8.14
-6.86
-5.52
-4.17
-2.80
-1.40
-0.04
1.09
1.80
1.92
1.46
0.55
-0.59
-1.77
-2.89
-3.93
-4.89
-5.70
-6.25
-6.38
-5.89
-4.65
-2.63
0.08
3.23
6.44
9.29
11.38
12.48
12.52
11.61
9.92
7.65
4.96
2.00
-1.00
-3.77
-6.01
-7.43
-7.90
-7.43
-6.17
-4.39
-2.35
-0.33
1.52
3.11
4.47
5.62
6.54
7.14
7.27
6.80
5.76
4.29
2.70
1.38
0.71
0.95
2.22
4.42
7.27
10.35
13.21
15.46
16.87
17.38
17.06
16.06
14.53
12.65
10.60
8.59
6.80
5.37
4.34
3.69
3.41
3.49
3.93
4.70
5.70
6.79
7.81
8.71
9.50
10.26
11.01
11.67
12.02
11.80
10.82
9.02
6.50
3.54
0.50
-2.25
-4.43
-5.87
-6.56
-6.59
-6.07
-5.12
-3.84
-2.29
-0.56
1.18
2.75
3.94
4.63
4.78
4.47
3.81
2.96
2.05
1.18
0.42
-0.21
-0.74
-1.23
-1.71
-2.19
-2.61
-2.92
-3.09
-3.12
-3.06
-2.96
-2.88
-2.89
-3.10
-3.63
-4.55
-5.86
-7.41
-8.92
-10.06
-10.53
-10.13
-8.88
-6.94
-4.59
-2.17
0.01
1.74
2.92
3.56
3.74
3.60
3.28
2.86
2.42
1.97
1.48
0.91
0.25
-0.44
-1.07
-1.52
-1.80
-1.99
-2.30
-2.90
-3.90
-5.20
-6.59
-7.81
-8.65
-9.06
-9.13
-9.01
-8.82
-8.66
-8.58
-8.57
-8.60
-8.60
-8.43
-7.93
-7.00
-5.60
-3.81
-1.86
-0.02
1.43
2.37
2.78
2.80
2.60
2.34
2.12
1.95
1.83
1.72
1.60
1.48
1.33
1.13
0.84
0.41
-0.16
-0.79
-1.37
-1.78
-1.96
-1.92
-1.74
-1.54
-1.42
-1.46
-1.67
-2.09
-2.72
-3.51
-4.34
-5.00
-5.23
-4.83
-3.72
-1.98
0.18
2.49
4.71
6.72
8.48
10.03
11.37
12.47
13.25
13.54
13.25
12.28
10.66
8.46
5.84
2.97
0.06
-2.72
-5.27
-7.49
-9.32
-10.71
-11.58
-11.90
-11.70
-11.12
-10.40
-9.83
-9.63
-9.85
-10.41
-11.06
-11.54
-11.66
-11.31
-10.49
-9.31
-7.88
-6.35
-4.86
-3.52
-2.40
-1.53
-0.86
-0.30
0.26
0.89
1.62
2.42
3.20
3.83
4.21
4.24
3.87
3.12
2.07
0.87
-0.31
-1.30
-1.99
-2.32
-2.32
-2.06
-1.62
-1.12
-0.65
-0.31
-0.23
-0.53
-1.29
-2.48
-4.01
-5.68
-7.23
-8.40
-8.95
-8.76
-7.78
-6.12
-4.01
-1.80
0.20
1.71
2.61
2.95
2.92
2.75
2.61
2.56
2.52
2.38
2.07
1.63
1.19
0.86
0.66
0.46
0.09
-0.62
-1.66
-2.85
-3.90
-4.60
-4.88
-4.83
-4.66
-4.55
-4.58
-4.74
-4.99
-5.26
-5.54
-5.79
-5.97
-5.98
-5.71
-5.06
-4.00
-2.60
-1.02
0.56
1.96
3.08
3.86
4.31
4.48
4.42
4.19
3.87
3.56
3.33
3.21
3.18
3.14
2.96
2.58
1.99
1.26
0.51
-0.16
-0.70
-1.11
-1.44
-1.72
-1.96
-2.17
-2.37
-2.63
-3.07
-3.76
-4.68
-5.71
-6.64
-7.24
-7.30
-6.64
-5.17
-2.86
0.18
3.66
7.14
10.09
12.08
12.91
12.69
11.74
10.49
9.27
8.24
7.34
6.44
5.40
4.17
2.82
1.50
0.38
-0.44
-0.95
-1.24
-1.45
-1.73
-2.13
-2.61
-3.02
-3.27
-3.32
-3.30
-3.45
-3.99
-5.03
-6.43
-7.89
-8.99
-9.45
-9.15
-8.21
-6.91
-5.52
-4.22
-3.10
-2.12
-1.21
-0.30
0.63
1.59
2.53
3.36
3.92
4.09
3.77
3.01
1.93
0.74
-0.35
-1.22
-1.79
-2.09
-2.17
-2.08
-1.93
-1.80
-1.80
-2.01
-2.46
-3.10
-3.84
-4.57
-5.19
-5.68
-6.04
-6.31
-6.50
-6.60
-6.54
-6.21
-5.50
-4.35
-2.78
-0.92
1.02
2.83
4.32
5.39
6.02
6.26
6.22
5.98
5.64
5.27
4.90
4.51
4.06
3.49
2.80
2.05
1.32
0.74
0.35
0.15
0.07
-0.01
-0.16
-0.42
-0.77
-1.17
-1.58
-1.98
-2.38
-2.82
-3.36
-4.05
-4.94
-5.95
-6.89
-7.48
-7.45
-6.67
-5.23
-3.39
-1.48
0.23
1.59
2.63
3.41
4.03
4.52
4.89
5.15
5.30
5.35
5.32
5.20
4.94
4.51
3.95
3.33
2.77
2.40
2.27
2.35
2.53
2.69
2.73
2.63
2.43
2.23
2.06
1.96
1.87
1.73
1.48
1.12
0.66
0.14
-0.39
-0.89
-1.31
-1.61
-1.73
-1.65
-1.40
-1.11
-0.95
-1.13
-1.73
-2.70
-3.82
-4.80
-5.41
-5.53
-5.21
-4.60
-3.83
-3.03
-2.23
-1.45
-0.75
-0.20
0.12
0.20
0.06
-0.20
-0.40
-0.45
-0.25
0.21
0.84
1.53
2.14
2.54
2.65
2.40
1.78
0.83
-0.37
-1.69
-2.93
-3.88
-4.34
-4.23
-3.58
-2.53
-1.30
-0.10
0.93
1.72
2.30
2.72
3.04
3.29
3.48
3.65
3.83
4.03
4.29
4.57
4.80
4.93
4.97
5.00
5.12
5.36
5.70
6.03
6.27
6.30
6.03
5.45
4.62
3.63
2.59
1.59
0.79
0.28
0.04
-0.04
-0.05
0.03
0.38
1.21
2.63
4.70
7.24
9.80
11.86
13.03
13.32
13.07
12.84
13.12
14.41
16.78
19.99
23.65
27.40
30.95
34.04
36.42
36.75
34.46
30.13
25.47
22.31
21.77
23.90
27.98
33.23
38.97
44.93
50.70
56.21
61.53
66.91
72.40
77.76
82.48
86.05
88.30
88.38
86.06
82.03
77.60
73.88
71.28
69.47
67.65
64.93
58.39
46.10
28.25
6.94
-15.28
-36.50
-55.59
-71.99
-85.63
-100.16
-118.22
-139.72
-162.16
-183.01
-201.30
-217.61
-233.34
-249.88
-272.24
-302.65
-338.59
-373.93
-402.77
-421.88
-430.64
-429.91
-394.35
-314.57
-203.10
-87.38
9.86
80.06
125.45
152.70
168.84
179.31
183.07
178.94
168.12
155.00
143.61
135.81
131.44
129.36
128.37
124.19
114.50
100.44
85.78
73.82
66.39
63.07
62.32
62.71
61.29
56.80
50.50
45.25
43.28
45.17
50.09
56.77
64.36
70.73
73.74
72.62
68.53
63.44
58.87
56.15
54.53
52.91
49.40
42.83
33.30
22.16
11.54
3.40
-1.04
-1.68
0.82
4.37
7.20
8.60
8.87
8.55
7.76
6.27
3.59
-0.41
-6.78
-15.80
-26.64
-37.89
-48.65
-58.87
-68.89
-79.01
-88.91
-99.55
-111.21
-123.16
-134.19
-143.72
-152.11
-159.94
-167.43
-164.10
-144.58
-111.29
-72.02
-33.51
1.10
30.89
55.89
76.25
92.25
102.78
107.55
107.85
105.92
103.45
100.69
96.71
90.15
80.26
66.42
49.80
33.12
19.32
10.14
4.91
2.22
0.65
-0.56
-2.20
-4.22
-5.99
-6.79
-6.45
-5.55
-4.85
-4.98
-6.12
-8.28
-10.94
-13.38
-15.01
-15.72
-15.85
-15.73
-15.39
-14.46
-13.17
-11.60
-9.98
-8.56
-7.59
-7.20
-7.23
-7.41
-7.45
-7.14
-6.34
-5.10
-3.66
-2.40
-1.71
-1.83
-2.77
-4.23
-5.73
-6.74
-6.94
-6.37
-5.34
-4.26
-3.43
-3.01
-2.98
-3.23
-3.55
-3.72
-3.48
-2.56
-0.74
2.12
6.02
10.87
16.47
22.63
29.03
35.31
41.00
45.68
49.07
51.12
51.95
51.76
50.65
48.67
45.81
42.21
38.17
34.16
30.70
28.15
26.71
26.38
27.08
28.62
30.72
32.90
34.48
34.78
33.27
29.79
24.59
18.19
11.09
3.64
-4.01
-11.87
-19.78
-27.38
-33.98
-38.71
-40.79
-39.78
-35.84
-29.74
-22.71
-16.04
-10.65
-6.79
-4.07
-1.75
0.81
3.87
7.21
10.40
13.14
15.48
17.73
20.28
23.32
26.77
30.38
33.89
37.20
40.48
43.99
47.96
52.45
57.30
62.12
66.29
68.87
68.80
65.09
56.94
43.91
25.91
3.26
-23.31
-52.58
-82.77
-111.69
-136.75
-155.77
-167.48
-171.91
-170.13
-163.74
-154.32
-143.08
-130.84
-117.76
-103.88
-89.26
-74.01
-58.03
-41.06
-23.01
-4.50
13.00
28.09
39.52
46.55
49.21
48.44
45.94
43.51
42.50
43.64
47.94
56.00
67.72
82.16
97.92
113.63
127.95
139.38
141.36
128.82
100.99
62.66
21.47
-15.35
-42.52
-57.44
-60.64
-55.62
-47.01
-39.55
-36.60
-39.19
-45.68
-52.63
-56.74
-56.40
-52.40
-46.49
-40.55
-35.74
-32.29
-29.69
-27.25
-24.62
-21.84
-19.07
-15.88
-11.65
-6.12
0.31
6.60
11.66
14.65
15.23
13.67
10.91
8.09
6.06
5.27
5.68
6.96
8.77
10.86
13.16
15.74
18.74
21.92
25.43
29.39
33.84
38.51
42.65
45.12
44.67
40.46
32.54
21.98
10.53
0.12
-7.73
-12.34
-13.94
-13.53
-12.44
-11.90
-12.60
-14.64
-17.40
-19.92
-21.21
-20.59
-17.85
-13.35
-7.85
-2.25
2.51
5.70
6.90
6.01
3.65
0.82
-1.42
-2.36
-1.92
-0.79
-0.08
-0.81
-3.32
-7.04
-10.71
-12.88
-12.52
-9.43
-4.44
1.02
5.51
8.16
8.97
8.55
7.74
7.09
6.60
5.75
4.00
1.14
-2.53
-6.25
-9.21
-10.86
-11.06
-10.09
-8.35
-6.10
-3.34
0.13
4.49
9.59
14.83
19.40
22.45
23.60
23.11
21.83
20.84
20.93
22.37
24.53
26.57
27.63
27.16
25.14
22.00
18.50
15.40
13.37
12.81
13.83
16.20
19.36
22.58
25.10
26.27
25.66
23.06
18.47
12.04
4.04
-5.10
-14.77
-24.31
-32.97
-40.14
-45.44
-48.81
-50.48
-50.96
-50.92
-50.99
-51.64
-53.00
-54.83
-56.64
-57.90
-58.29
-57.84
-56.90
-55.93
-55.29
-55.09
-55.09
-54.92
-54.13
-52.40
-49.53
-45.39
-39.89
-32.97
-24.77
-15.79
-6.98
0.39
5.04
6.04
2.97
-4.02
-14.40
-27.23
-41.16
-54.29
-64.36
-69.21
-67.60
-59.76
-47.35
-32.81
-18.24
-4.62
8.26
21.14
34.49
47.98
60.56
71.08
78.89
84.04
87.04
88.52
88.89
88.34
87.07
85.47
84.07
83.37
83.50
84.12
84.55
84.06
82.17
78.89
74.58
69.85
65.27
61.35
58.55
57.41
58.44
61.95
67.65
74.55
80.99
85.24
86.12
83.37
77.69
70.32
62.56
55.32
49.07
43.89
39.66
36.09
32.79
29.26
25.09
20.13
14.60
8.97
3.75
-0.78
-4.60
-7.77
-10.42
-12.76
-15.14
-18.01
-21.69
-26.12
-30.78
-34.75
-37.07
-37.24
-35.57
-33.06
-30.87
-29.80
-30.03
-31.46
-33.87
-37.07
-41.02
-45.73
-51.09
-56.65
-61.75
-65.81
-69.08
-72.16
-75.47
-79.05
-82.85
-86.90
-91.17
-95.53
-99.79
-104.69
-110.65
-117.00
-122.19
-124.89
-124.61
-121.66
-116.85
-111.10
-106.69
-104.64
-103.33
-99.05
-88.42
-70.30
-46.18
-19.58
5.02
21.36
25.18
16.13
-2.81
-27.88
-55.99
-84.44
-110.69
-119.30
-101.99
-65.44
-26.66
1.27
15.50
20.65
24.24
32.53
48.16
67.54
85.11
97.03
103.23
105.90
106.80
107.22
107.56
107.30
103.65
94.37
79.37
60.78
41.54
24.30
11.43
3.60
0.98
1.65
3.25
3.94
3.04
0.47
-3.84
-9.61
-16.89
-25.71
-36.50
-46.50
-51.04
-46.51
-32.86
-13.64
6.23
24.26
37.97
45.99
48.73
47.75
45.26
43.83
42.30
41.24
41.00
41.23
41.49
41.51
40.94
39.47
36.95
33.45
29.80
26.57
23.77
21.32
19.09
16.77
14.06
10.82
7.11
3.48
0.22
-2.67
-5.03
-6.75
-7.96
-9.01
-10.20
-11.41
-12.02
-11.33
-8.85
-4.02
3.02
11.30
19.43
26.33
31.81
36.38
40.74
45.48
51.53
59.06
67.33
75.14
81.43
85.98
88.90
90.32
90.51
90.71
91.67
93.33
94.87
94.96
92.48
86.33
76.04
57.49
32.02
5.61
-14.75
-25.05
-28.27
-27.75
-25.49
-21.75
-16.15
-7.73
2.86
13.54
21.70
25.44
24.37
19.28
11.85
4.18
-1.06
-3.00
-1.63
2.32
7.86
13.18
16.38
16.37
13.34
9.21
4.73
1.49
1.09
4.63
10.03
14.27
15.05
11.66
4.89
-6.89
-24.04
-46.06
-71.78
-103.45
-143.53
-193.22
-251.79
-316.30
-384.74
-449.67
-499.30
-520.61
-508.96
-466.77
-402.41
-327.46
-230.85
-120.25
-14.34
60.53
110.57
144.02
167.31
182.46
190.83
194.14
191.39
184.32
176.73
173.17
173.03
174.62
176.61
178.02
177.73
172.40
160.90
144.12
123.72
97.87
64.08
24.66
-14.11
-48.72
-78.18
-101.55
-115.38
-120.28
-122.33
-128.67
-143.59
-166.79
-193.57
-217.19
-231.10
-231.52
-218.70
-196.18
-167.63
-135.05
-98.97
-59.21
-15.61
31.57
81.06
129.98
174.01
208.12
227.79
230.23
215.84
189.01
156.71
125.62
99.15
76.79
54.99
30.07
1.27
-27.59
-49.13
-55.49
-42.14
-10.35
33.35
79.39
118.04
141.50
144.89
126.78
89.73
40.34
-11.35
-53.83
-77.29
-76.42
-51.54
-7.25
50.05
114.50
180.52
241.69
289.95
316.79
315.93
286.01
231.52
161.35
86.42
16.08
-43.13
-87.30
-114.43
-123.66
-115.84
-94.05
-63.55
-30.20
-0.14
21.57
32.11
31.65
23.04
10.44
-2.59
-18.68
-39.13
-62.98
-85.90
-101.87
-106.24
-98.05
-80.83
-61.48
-47.13
-41.15
-42.51
-46.96
-49.72
-48.06
-42.23
-34.59
-27.91
-24.09
-23.34
-24.85
-27.78
-31.49
-35.34
-38.91
-41.23
-41.30
-38.53
-32.87
-25.12
-16.57
-8.59
-2.25
1.75
3.00
1.05
-3.69
-9.90
-15.51
-18.15
-16.06
-8.91
1.99
14.24
25.12
32.72
36.47
37.04
35.61
33.33
30.71
27.71
24.11
19.82
15.16
10.66
6.85
3.62
0.66
-2.47
-6.02
-9.78
-13.12
-15.23
-15.61
-14.40
-12.32
-10.28
-9.04
-8.83
-9.28
-9.67
-9.21
-7.58
-5.07
-2.45
-0.53
0.18
-0.35
-1.55
-2.65
-2.87
-2.07
-0.83
-0.12
-0.70
-2.81
-6.05
-9.05
-10.80
-10.82
-9.51
-7.85
-6.90
-7.21
-8.86
-11.77
-16.01
-21.83
-27.21
-29.12
-24.55
-12.64
4.53
22.62
36.59
42.75
40.26
31.46
20.25
10.20
3.06
-1.32
-4.13
-6.41
-8.32
-9.30
-8.72
-6.70
-4.23
-2.67
-2.94
-5.19
-8.63
-11.95
-13.93
-13.86
-11.92
-9.02
-6.32
-4.73
-4.50
-5.38
-6.46
-6.95
-6.39
-4.83
-2.73
-0.69
0.81
1.60
1.79
1.74
1.76
2.06
2.59
3.16
3.51
3.49
3.09
2.49
1.94
1.60
1.49
1.54
1.58
1.50
1.21
0.71
0.05
-0.67
-1.37
-2.02
-2.63
-3.29
-3.99
-4.71
-5.26
-5.31
-4.44
-2.34
1.01
5.32
10.04
14.53
18.19
20.70
22.10
22.71
22.92
22.99
22.94
22.59
21.68
19.83
16.91
13.12
9.01
5.16
2.10
0.17
-0.44
0.23
1.57
2.77
3.13
2.34
0.46
-2.07
-4.66
-6.84
-8.59
-10.81
-14.58
-20.46
-28.05
-36.11
-43.05
-47.63
-49.28
-46.10
-37.73
-25.86
-13.37
-2.41
6.24
12.64
17.18
20.62
23.94
27.73
32.50
37.77
42.80
46.86
49.55
50.76
50.89
50.32
48.80
45.94
41.48
35.21
27.47
19.67
13.19
9.28
8.11
8.50
8.72
7.15
3.04
-3.11
-10.11
-17.46
-24.95
-32.93
-43.13
-56.23
-72.29
-90.79
-110.26
-128.69
-144.51
-156.03
-162.51
-165.28
-168.08
-176.46
-195.37
-226.36
-261.23
-289.84
-301.18
-287.53
-247.69
-187.51
-117.77
-50.25
6.74
49.41
77.20
92.67
100.55
106.89
117.61
136.48
163.78
197.99
234.74
267.17
288.39
293.51
281.09
252.97
212.89
164.92
115.11
67.82
24.43
-14.83
-48.05
-70.48
-76.76
-64.22
-34.83
9.25
64.24
125.49
188.93
252.30
314.52
373.88
427.16
447.16
416.81
339.68
238.26
136.39
46.75
-28.16
-90.33
-141.67
-182.76
-209.73
-219.82
-214.33
-198.58
-178.81
-159.45
-142.88
-130.30
-122.45
-116.74
-110.38
-102.03
-92.25
-82.25
-72.90
-64.71
-58.27
-54.15
-50.86
-46.76
-41.20
-34.84
-28.79
-23.73
-19.81
-17.00
-15.26
-13.71
-11.60
-8.79
-5.72
-2.95
-0.66
1.21
2.77
3.98
5.06
6.14
7.24
8.19
8.88
9.19
9.09
8.53
