1478932501.00
64.000000
-0.00
-0.00
-0.00
-0.00
-0.00
-0.00
-0.00
-0.00
-0.00
-0.00
0.00
0.01
0.01
-0.00
-0.03
-0.05
-0.05
0.00
0.13
0.36
0.66
1.01
1.37
1.72
2.06
2.40
2.79
3.24
3.80
4.42
5.06
5.67
6.21
6.68
7.14
7.67
8.31
9.16
10.14
11.11
11.92
12.52
12.93
13.34
13.99
15.07
16.85
19.15
21.66
24.08
26.17
28.01
29.91
32.33
35.66
40.30
45.90
51.88
57.57
62.55
66.83
70.92
75.61
81.57
89.41
98.60
108.24
117.19
124.70
130.69
135.87
141.82
147.58
155.65
166.61
180.32
195.10
207.62
213.31
207.71
187.92
153.69
107.88
54.38
-2.90
-61.46
-120.49
-180.10
-240.17
-299.74
-357.06
-410.00
-457.41
-498.93
-534.65
-564.55
-588.08
-604.24
-611.53
-608.16
-591.71
-559.85
-510.66
-443.84
-361.63
-268.99
-172.69
-79.56
5.09
78.46
139.78
189.51
228.35
256.84
275.64
285.89
289.39
288.19
284.02
277.73
269.33
258.33
244.35
227.60
208.99
189.92
171.81
155.68
141.88
130.08
119.59
109.61
99.60
89.46
79.39
69.80
61.03
53.19
46.21
39.85
33.92
28.32
23.10
18.31
13.98
10.16
6.75
3.69
0.98
-1.34
-3.23
-4.72
-5.86
-6.77
-7.55
-8.36
-9.36
-10.64
-12.16
-13.64
-14.66
-14.80
-13.89
-12.07
-9.79
-7.56
-5.75
-4.44
-3.51
-2.82
-2.26
-1.91
-1.89
-2.24
-2.86
-3.48
-3.79
-3.58
-2.80
-1.67
-0.52
0.31
0.61
0.38
-0.17
-0.75
-1.15
-1.31
-1.33
-1.40
-1.69
-2.18
-2.73
-3.13
-3.21
-2.94
-2.43
-1.91
-1.58
-1.53
-1.68
-1.87
-1.89
-1.62
-1.04
-0.23
0.67
1.49
2.06
2.26
2.04
1.47
0.75
0.13
-0.15
0.04
0.67
1.55
2.46
3.20
3.68
3.93
4.00
3.94
3.78
3.50
3.15
2.78
2.46
2.20
2.01
1.87
1.73
1.56
1.31
0.89
0.20
-0.82
-2.20
-3.86
-5.57
-7.12
-8.31
-9.08
-9.40
-9.28
-8.74
-7.74
-6.34
-4.67
-2.98
-1.56
-0.62
-0.24
-0.34
-0.73
-1.22
-1.69
-2.04
-2.21
-2.15
-1.76
-0.99
0.10
1.36
2.59
3.58
4.19
4.39
4.19
3.65
2.81
1.77
0.62
-0.48
-1.39
-2.02
-2.34
-2.40
-2.27
-2.01
-1.67
-1.30
-0.95
-0.62
-0.27
0.26
1.14
2.47
4.14
5.79
6.96
7.23
6.41
4.60
2.15
-0.49
-2.90
-4.78
-5.92
-6.24
-5.72
-4.45
-2.68
-0.79
0.81
1.80
2.08
1.73
1.02
0.20
-0.50
-0.95
-1.12
-1.05
-0.83
-0.53
-0.23
0.00
0.14
0.14
-0.06
-0.50
-1.22
-2.16
-3.13
-3.85
-4.04
-3.49
-2.17
-0.27
1.89
3.95
5.60
6.66
7.06
6.86
6.18
5.20
4.06
2.90
1.80
0.77
-0.20
-1.12
-1.98
-2.72
-3.27
-3.56
-3.59
-3.45
-3.28
-3.29
-3.64
-4.37
-5.41
-6.57
-7.62
-8.32
-8.48
-7.96
-6.70
-4.76
-2.29
0.44
3.07
5.28
6.83
7.67
7.87
7.59
6.95
6.03
4.86
3.48
1.97
0.45
-0.94
-2.13
-3.11
-3.95
-4.70
-5.41
-6.02
-6.50
-6.86
-7.22
-7.79
-8.70
-9.93
-11.24
-12.21
-12.39
-11.53
-9.62
-6.98
-4.09
-1.45
0.59
1.89
2.49
2.59
2.40
2.18
2.17
2.52
3.29
4.39
5.65
6.82
7.72
8.25
8.39
8.22
7.80
7.16
6.29
5.13
3.62
1.71
-0.65
-3.41
-6.46
-9.56
-12.37
-14.51
-15.63
-15.46
-13.87
-10.87
-6.62
-1.49
3.97
9.03
12.88
14.87
14.65
12.36
8.56
4.11
-0.11
-3.52
-5.86
-7.18
-7.67
-7.53
-6.91
-5.96
-4.87
-3.94
-3.42
-3.51
-4.18
-5.23
-6.37
-7.26
-7.64
-7.37
-6.37
-4.70
-2.48
0.07
2.70
5.19
7.33
9.02
10.17
10.77
10.81
10.38
9.63
8.73
7.86
7.12
6.51
5.93
5.29
4.49
3.55
2.55
1.62
0.87
0.32
-0.08
-0.49
-1.04
-1.81
-2.78
-3.79
-4.64
-5.05
-4.84
-3.91
-2.29
-0.16
2.23
4.59
6.63
8.17
9.08
9.35
9.07
8.37
7.45
6.47
5.55
4.74
3.97
3.17
2.25
1.21
0.16
-0.74
-1.31
-1.51
-1.38
-1.08
-0.83
-0.80
-1.15
-1.90
-2.95
-4.07
-4.95
-5.26
-4.78
-3.48
-1.51
0.86
3.32
5.59
7.46
8.82
9.60
9.82
9.62
9.14
8.58
8.00
7.41
6.74
5.93
5.00
4.03
3.07
2.13
1.16
0.16
-0.84
-1.71
-2.33
-2.66
-2.79
-2.89
-3.14
-3.67
-4.46
-5.42
-6.34
-7.03
-7.27
-6.87
-5.75
-3.96
-1.72
0.66
2.83
4.53
5.65
6.23
6.36
6.11
5.53
4.66
3.59
2.47
1.49
0.80
0.45
0.35
0.33
0.23
-0.04
-0.46
-0.93
-1.33
-1.59
-1.77
-1.98
-2.39
-3.15
-4.25
-5.61
-7.00
-8.15
-8.78
-8.70
-7.84
-6.29
-4.21
-1.85
0.58
2.87
4.87
6.44
7.45
7.81
7.48
6.56
5.25
3.84
2.60
1.68
1.08
0.71
0.40
0.07
-0.31
-0.66
-0.92
-1.06
-1.12
-1.22
-1.47
-1.91
-2.53
-3.29
-4.13
-5.02
-5.91
-6.68
-7.10
-6.94
-5.99
-4.23
-1.84
0.83
3.36
5.43
6.88
7.71
8.02
7.90
7.41
6.56
5.39
4.02
2.66
1.53
0.80
0.47
0.42
0.45
0.39
0.16
-0.19
-0.58
-0.90
-1.12
-1.28
-1.44
-1.72
-2.25
-3.11
-4.26
-5.58
-6.76
-7.45
-7.35
-6.32
-4.49
-2.17
0.24
2.40
4.11
5.34
6.14
6.55
6.57
6.20
5.45
4.46
3.44
2.61
2.12
1.95
1.94
1.90
1.69
1.27
0.71
0.13
-0.38
-0.80
-1.17
-1.51
-1.83
-2.11
-2.38
-2.71
-3.25
-4.11
-5.27
-6.50
-7.45
-7.69
-7.00
-5.37
-3.07
-0.50
1.96
4.08
5.75
6.96
7.68
7.81
7.30
6.16
4.63
3.04
1.76
1.01
0.73
0.65
0.46
-0.07
-0.88
-1.75
-2.39
-2.61
-2.43
-2.05
-1.72
-1.67
-1.99
-2.63
-3.50
-4.48
-5.48
-6.37
-7.04
-7.30
-6.99
-6.04
-4.46
-2.39
-0.07
2.23
4.26
5.82
6.76
7.08
6.83
6.19
5.33
4.43
3.54
2.68
1.79
0.85
-0.11
-1.02
-1.78
-2.36
-2.77
-3.08
-3.35
-3.64
-3.98
-4.36
-4.80
-5.29
-5.88
-6.57
-7.33
-8.02
-8.47
-8.46
-7.82
-6.51
-4.61
-2.37
-0.04
2.13
3.97
5.37
6.25
6.60
6.43
5.79
4.79
3.58
2.32
1.13
0.14
-0.61
-1.09
-1.37
-1.53
-1.70
-1.93
-2.21
-2.47
-2.64
-2.71
-2.76
-2.98
-3.50
-4.39
-5.51
-6.61
-7.35
-7.49
-6.88
-5.57
-3.74
-1.61
0.59
2.72
4.64
6.22
7.31
7.78
7.59
6.84
5.75
4.58
3.56
2.79
2.21
1.73
1.21
0.63
0.03
-0.50
-0.85
-0.97
-0.83
-0.51
-0.12
0.19
0.23
-0.16
-1.02
-2.29
-3.74
-5.04
-5.79
-5.68
-4.58
-2.59
-0.04
2.64
5.03
6.83
7.92
8.29
8.04
7.30
6.21
4.91
3.59
2.43
1.56
1.03
0.75
0.57
0.34
-0.01
-0.49
-1.02
-1.52
-1.95
-2.34
-2.76
-3.30
-4.03
-4.97
-6.08
-7.23
-8.22
-8.81
-8.78
-7.96
-6.38
-4.20
-1.77
0.55
2.42
3.70
4.38
4.57
4.37
3.86
3.04
1.94
0.62
-0.78
-2.08
-3.19
-4.09
-4.87
-5.64
-6.43
-7.21
-7.91
-8.48
-8.96
-9.44
-10.05
-10.86
-11.88
-13.05
-14.21
-15.17
-15.71
-15.58
-14.63
-12.84
-10.32
-7.32
-4.15
-1.08
1.71
4.16
6.23
7.92
9.19
10.03
10.49
10.67
10.75
10.86
11.03
11.18
11.17
10.89
10.34
9.65
8.97
8.40
7.88
7.25
6.33
5.03
3.37
1.54
-0.26
-1.77
-2.79
-3.11
-2.62
-1.25
0.88
3.55
6.40
9.10
11.35
13.02
14.03
14.42
14.25
13.63
12.72
11.70
10.74
9.95
9.36
8.93
8.55
8.14
7.66
7.13
6.57
6.04
5.53
5.05
4.58
4.10
3.51
2.69
1.47
-0.27
-2.55
-5.18
-7.83
-10.07
-11.52
-11.97
-11.46
-10.21
-8.54
-6.78
-5.17
-3.79
-2.71
-1.92
-1.42
-1.26
-1.44
-1.91
-2.55
-3.20
-3.68
-3.85
-3.70
-3.27
-2.68
-2.05
-1.48
-1.03
-0.76
-0.71
-0.93
-1.45
-2.31
-3.50
-5.00
-6.79
-8.77
-10.84
-12.84
-14.57
-15.81
-16.36
-16.07
-14.88
-12.83
-10.10
-6.88
-3.41
0.06
3.33
6.20
8.52
10.16
11.11
11.46
11.40
11.18
11.01
11.03
11.24
11.52
11.70
11.64
11.29
10.71
10.02
9.34
8.73
8.13
7.45
6.64
5.69
4.63
3.49
2.28
1.02
-0.24
-1.35
-2.13
-2.46
-2.32
-1.85
-1.25
-0.73
-0.39
-0.24
-0.22
-0.32
-0.55
-0.92
-1.41
-1.91
-2.27
-2.36
-2.14
-1.67
-1.09
-0.56
-0.21
-0.06
-0.07
-0.14
-0.15
-0.03
0.27
0.69
1.13
1.44
1.42
0.96
0.03
-1.25
-2.64
-3.82
-4.52
-4.58
-4.00
-2.91
-1.47
0.14
1.80
3.38
4.79
5.89
6.56
6.72
6.33
5.44
4.18
2.77
1.46
0.44
-0.15
-0.32
-0.18
0.07
0.24
0.22
0.00
-0.34
-0.69
-0.99
-1.23
-1.49
-1.86
-2.39
-3.11
-3.95
-4.82
-5.59
-6.09
-6.19
-5.75
-4.71
-3.08
-0.99
1.38
3.77
5.95
7.66
8.73
9.03
8.58
7.50
6.03
4.50
3.22
2.38
2.01
1.97
2.04
1.96
1.55
0.76
-0.32
-1.51
-2.61
-3.45
-3.96
-4.13
-4.09
-4.01
-4.11
-4.55
-5.38
-6.48
-7.63
-8.53
-8.93
-8.65
-7.63
-5.96
-3.85
-1.60
0.46
2.03
2.96
3.20
2.87
2.17
1.35
0.59
0.01
-0.41
-0.73
-1.04
-1.40
-1.80
-2.17
-2.45
-2.62
-2.72
-2.82
-2.99
-3.26
-3.60
-3.99
-4.42
-4.92
-5.50
-6.04
-6.35
-6.17
-5.32
-3.79
-1.73
0.54
2.68
4.42
5.62
6.29
6.53
6.43
6.08
5.48
4.65
3.69
2.72
1.89
1.28
0.86
0.53
0.14
-0.35
-0.87
-1.30
-1.51
-1.48
-1.30
-1.17
-1.30
-1.81
-2.70
-3.85
-5.00
-5.86
-6.17
-5.78
-4.67
-2.98
-0.92
1.25
3.29
5.00
6.19
6.77
6.69
6.00
4.84
3.40
1.90
0.53
-0.59
-1.44
-2.05
-2.49
-2.82
-3.07
-3.23
-3.29
-3.23
-3.08
-2.88
-2.72
-2.69
-2.85
-3.22
-3.73
-4.25
-4.58
-4.55
-4.03
-3.00
-1.52
0.24
2.07
3.74
5.07
5.93
6.30
6.23
5.84
5.22
4.46
3.59
2.64
1.67
0.76
-0.04
-0.70
-1.20
-1.61
-1.94
-2.20
-2.37
-2.44
-2.45
-2.51
-2.77
-3.33
-4.23
-5.38
-6.61
-7.69
-8.33
-8.35
-7.63
-6.19
-4.19
-1.92
0.30
2.22
3.64
4.54
4.96
4.94
4.54
3.79
2.77
1.63
0.54
-0.33
-0.92
-1.26
-1.49
-1.72
-1.98
-2.27
-2.54
-2.74
-2.90
-3.06
-3.27
-3.54
-3.88
-4.29
-4.81
-5.45
-6.11
-6.61
-6.67
-6.06
-4.71
-2.74
-0.44
1.83
3.78
5.24
6.15
6.56
6.55
6.21
5.59
4.75
3.75
2.64
1.51
0.45
-0.46
-1.16
-1.60
-1.82
-1.88
-1.87
-1.87
-1.93
-2.08
-2.36
-2.83
-3.56
-4.54
-5.67
-6.71
-7.37
-7.38
-6.62
-5.14
-3.13
-0.91
1.24
3.14
4.65
5.72
6.33
6.44
6.04
5.18
3.99
2.63
1.28
0.08
-0.90
-1.64
-2.14
-2.42
-2.50
-2.38
-2.11
-1.76
-1.43
-1.22
-1.23
-1.50
-2.01
-2.67
-3.30
-3.67
-3.56
-2.85
-1.53
0.28
2.42
4.71
7.00
9.12
10.90
12.12
12.59
12.26
11.22
9.69
7.95
6.21
4.58
3.14
1.90
0.92
0.27
-0.04
-0.04
0.14
0.36
0.50
0.55
0.55
0.51
0.41
0.14
-0.38
-1.14
-2.01
-2.74
-3.05
-2.78
-1.96
-0.78
0.49
1.63
2.54
3.23
3.78
4.20
4.43
4.37
3.96
3.24
2.38
1.57
1.00
0.71
0.68
0.78
0.89
0.89
0.75
0.47
0.08
-0.37
-0.86
-1.36
-1.87
-2.43
-3.03
-3.71
-4.46
-5.30
-6.17
-6.96
-7.50
-7.58
-7.00
-5.68
-3.70
-1.27
1.32
3.75
5.76
7.23
8.12
8.46
8.31
7.75
6.85
5.72
4.54
3.48
2.70
2.27
2.10
2.05
1.94
1.72
1.44
1.23
1.19
1.30
1.40
1.31
0.92
0.25
-0.60
-1.50
-2.42
-3.43
-4.58
-5.83
-7.01
-7.88
-8.19
-7.85
-6.86
-5.38
-3.60
-1.68
0.27
2.17
3.96
5.54
6.80
7.62
7.89
7.57
6.69
5.39
3.84
2.27
0.84
-0.29
-1.05
-1.45
-1.57
-1.53
-1.44
-1.37
-1.30
-1.18
-0.94
-0.56
-0.06
0.54
1.17
1.78
2.33
2.77
3.08
3.29
3.50
3.86
4.51
5.47
6.66
7.87
8.85
9.42
9.48
9.08
8.37
7.50
6.66
5.97
5.50
5.25
5.19
5.22
5.28
5.27
5.18
4.97
4.68
4.33
3.95
3.58
3.24
2.90
2.46
1.79
0.74
-0.77
-2.65
-4.61
-6.25
-7.19
-7.24
-6.49
-5.28
-4.07
-3.27
-3.09
-3.54
-4.42
-5.43
-6.25
-6.57
-6.17
-4.94
-2.98
-0.56
1.96
4.17
5.79
6.65
6.69
5.91
4.43
2.42
0.24
-1.69
-2.99
-3.43
-3.05
-2.12
-1.02
-0.11
0.43
0.55
0.33
-0.11
-0.69
-1.35
-2.08
-2.82
-3.51
-4.09
-4.56
-4.98
-5.54
-6.40
-7.68
-9.29
-10.93
-12.21
-12.74
-12.28
-10.81
-8.47
-5.51
-2.21
1.11
4.15
6.57
8.07
8.49
7.86
6.37
4.33
2.06
-0.16
-2.14
-3.75
-4.97
-5.78
-6.24
-6.39
-6.29
-5.98
-5.51
-4.93
-4.31
-3.72
-3.23
-2.89
-2.75
-2.82
-3.16
-3.80
-4.69
-5.73
-6.67
-7.22
-7.14
-6.30
-4.78
-2.81
-0.75
1.10
2.52
3.48
4.03
4.29
4.34
4.21
3.89
3.40
2.78
2.13
1.55
1.10
0.80
0.67
0.71
0.91
1.27
1.77
2.32
2.82
3.16
3.27
3.14
2.84
2.45
2.01
1.50
0.88
0.12
-0.77
-1.68
-2.41
-2.79
-2.63
-1.86
-0.48
1.35
3.45
5.59
7.55
9.19
10.38
11.02
11.00
10.21
8.65
6.50
4.11
1.98
0.50
-0.16
-0.20
-0.01
-0.09
-0.77
-2.10
-3.84
-5.63
-7.14
-8.16
-8.70
-8.90
-8.99
-9.15
-9.50
-10.08
-10.81
-11.54
-12.06
-12.15
-11.65
-10.46
-8.67
-6.44
-3.97
-1.47
0.90
3.00
4.66
5.69
5.91
5.24
3.77
1.76
-0.41
-2.40
-3.96
-5.01
-5.60
-5.83
-5.81
-5.64
-5.36
-5.00
-4.60
-4.16
-3.76
-3.50
-3.52
-3.96
-4.89
-6.29
-7.96
-9.64
-11.00
-11.75
-11.74
-10.94
-9.48
-7.54
-5.38
-3.21
-1.23
0.42
1.65
2.42
2.73
2.65
2.35
2.01
1.85
1.99
2.42
3.01
3.61
4.11
4.45
4.69
4.90
5.09
5.20
5.15
4.85
4.31
3.60
2.81
2.00
1.13
0.15
-0.96
-2.11
-3.11
-3.72
-3.76
-3.18
-2.11
-0.76
0.64
1.93
3.01
3.86
4.45
4.77
4.92
5.08
5.54
6.59
8.30
10.54
12.90
14.92
16.21
16.59
16.04
14.67
12.64
10.08
7.19
4.25
1.60
-0.47
-1.82
-2.55
-2.94
-3.28
-3.74
-4.26
-4.61
-4.45
-3.58
-2.02
-0.01
2.03
3.71
4.78
5.19
5.10
4.71
4.19
3.61
2.94
2.13
1.14
0.04
-1.07
-2.09
-2.93
-3.54
-3.87
-3.93
-3.74
-3.36
-2.91
-2.57
-2.47
-2.72
-3.33
-4.21
-5.25
-6.26
-7.08
-7.48
-7.28
-6.34
-4.66
-2.41
0.08
2.41
4.28
5.52
6.10
6.10
5.64
4.80
3.68
2.38
1.07
-0.11
-1.06
-1.72
-2.15
-2.38
-2.41
-2.26
-1.97
-1.65
-1.48
-1.59
-2.08
-2.91
-3.96
-5.10
-6.19
-7.08
-7.56
-7.46
-6.59
-4.91
-2.60
0.05
2.64
4.85
6.49
7.54
8.07
8.20
8.06
7.74
7.29
6.79
6.27
5.78
5.40
5.13
4.98
4.91
4.83
4.67
4.34
3.82
3.11
2.21
1.09
-0.29
-1.94
-3.81
-5.76
-7.53
-8.77
-9.18
-8.54
-6.91
-4.57
-1.99
0.37
2.16
3.25
3.70
3.67
3.37
2.88
2.23
1.40
0.39
-0.72
-1.80
-2.71
-3.37
-3.78
-3.98
-4.07
-4.09
-4.09
-4.09
-4.14
-4.31
-4.70
-5.33
-6.13
-6.90
-7.41
-7.44
-6.82
-5.50
-3.56
-1.17
1.36
3.65
5.38
6.39
6.71
6.52
6.06
5.50
4.93
4.36
3.78
3.21
2.68
2.17
1.62
0.96
0.23
-0.47
-0.94
-1.06
-0.86
-0.55
-0.44
-0.78
-1.66
-2.94
-4.32
-5.43
-5.92
-5.60
-4.44
-2.60
-0.34
2.00
4.12
5.77
6.81
7.22
7.08
6.56
5.82
5.00
4.19
3.38
2.54
1.67
0.81
0.07
-0.45
-0.69
-0.66
-0.45
-0.17
0.09
0.25
0.24
-0.01
-0.60
-1.58
-2.88
-4.31
-5.57
-6.32
-6.31
-5.46
-3.89
-1.87
0.25
2.21
3.87
5.20
6.22
6.92
7.22
7.06
6.41
5.36
4.11
2.87
1.82
1.02
0.45
0.07
-0.16
-0.23
-0.17
0.01
0.23
0.43
0.52
0.47
0.19
-0.38
-1.33
-2.63
-4.12
-5.50
-6.42
-6.57
-5.83
-4.29
-2.25
-0.06
2.00
3.77
5.19
6.26
6.97
7.28
7.14
6.56
5.64
4.53
3.42
2.48
1.79
1.37
1.16
1.07
1.02
0.96
0.87
0.75
0.58
0.32
-0.08
-0.63
-1.34
-2.17
-3.04
-3.90
-4.70
-5.41
-5.96
-6.24
-6.10
-5.44
-4.19
-2.45
-0.35
1.85
3.92
5.63
6.77
7.23
6.99
6.12
4.83
3.37
2.05
1.09
0.59
0.50
0.62
0.71
0.58
0.16
-0.47
-1.11
-1.55
-1.69
-1.55
-1.29
-1.13
-1.26
-1.78
-2.68
-3.87
-5.15
-6.30
-7.05
-7.12
-6.34
-4.71
-2.43
0.16
2.65
4.73
6.19
6.96
7.08
6.63
5.72
4.50
3.17
1.96
1.05
0.51
0.29
0.24
0.18
0.03
-0.21
-0.45
-0.62
-0.66
-0.61
-0.57
-0.65
-0.97
-1.56
-2.42
-3.44
-4.48
-5.38
-6.02
-6.30
-6.16
-5.57
-4.52
-3.03
-1.21
0.77
2.66
4.22
5.29
5.83
5.89
5.56
4.92
4.03
2.95
1.78
0.68
-0.20
-0.72
-0.87
-0.76
-0.52
-0.31
-0.19
-0.15
-0.14
-0.10
-0.05
-0.09
-0.35
-0.95
-1.89
-3.06
-4.23
-5.13
-5.56
-5.41
-4.70
-3.54
-2.01
-0.21
1.73
3.66
5.36
6.58
7.13
6.97
6.19
5.01
3.66
2.36
1.23
0.34
-0.30
-0.71
-0.93
-1.01
-1.03
-1.00
-0.92
-0.79
-0.63
-0.48
-0.43
-0.55
-0.90
-1.48
-2.25
-3.10
-3.90
-4.45
-4.53
-3.98
-2.78
-1.06
0.94
2.92
4.66
6.03
6.96
7.42
7.42
6.97
6.18
5.22
4.27
3.45
2.79
2.24
1.73
1.20
0.70
0.33
0.15
0.14
0.24
0.30
0.25
0.00
-0.45
-1.13
-2.02
-3.11
-4.30
-5.46
-6.39
-6.91
-6.91
-6.37
-5.36
-4.04
-2.53
-0.98
0.50
1.82
2.84
3.44
3.53
3.04
2.06
0.76
-0.61
-1.81
-2.67
-3.16
-3.36
-3.38
-3.31
-3.21
-3.11
-3.04
-3.08
-3.28
-3.67
-4.17
-4.66
-5.07
-5.37
-5.60
-5.74
-5.69
-5.29
-4.40
-2.98
-1.17
0.77
2.55
3.96
4.91
5.41
5.52
5.26
4.69
3.89
2.99
2.12
1.38
0.77
0.22
-0.32
-0.86
-1.34
-1.65
-1.72
-1.57
-1.35
-1.23
-1.35
-1.80
-2.55
-3.50
-4.49
-5.35
-5.84
-5.77
-5.01
-3.58
-1.65
0.49
2.53
4.21
5.41
6.14
6.43
6.36
5.99
5.34
4.47
3.44
2.37
1.36
0.52
-0.09
-0.46
-0.62
-0.63
-0.53
-0.41
-0.32
-0.36
-0.61
-1.14
-1.93
-2.90
-3.89
-4.67
-5.04
-4.85
-4.06
-2.76
-1.11
0.70
2.46
4.03
5.28
6.15
6.59
6.59
6.23
5.58
4.79
3.97
3.17
2.38
1.54
0.63
-0.33
-1.24
-1.99
-2.50
-2.75
-2.80
-2.76
-2.75
-2.87
-3.21
-3.80
-4.62
-5.49
-6.16
-6.32
-5.71
-4.29
-2.18
0.28
2.71
4.78
6.26
7.07
7.26
6.94
6.25
5.37
4.44
3.55
2.73
1.94
1.12
0.25
-0.61
-1.33
-1.77
-1.83
-1.57
-1.15
-0.83
-0.86
-1.37
-2.36
-3.67
-5.04
-6.18
-6.83
-6.79
-5.98
-4.48
-2.49
-0.33
1.67
3.26
4.37
5.08
5.54
5.83
5.93
5.72
5.09
4.03
2.69
1.32
0.15
-0.75
-1.40
-1.89
-2.28
-2.56
-2.67
-2.60
-2.42
-2.25
-2.30
-2.68
-3.41
-4.35
-5.23
-5.75
-5.68
-4.88
-3.43
-1.55
0.47
2.35
3.88
4.99
5.66
5.91
5.77
5.29
4.56
3.70
2.84
2.06
1.38
0.74
0.11
-0.52
-1.11
-1.61
-1.98
-2.23
-2.44
-2.67
-2.99
-3.39
-3.87
-4.41
-4.94
-5.42
-5.69
-5.59
-4.97
-3.77
-2.07
-0.08
1.94
3.78
5.29
6.43
7.17
7.50
7.37
6.77
5.75
4.49
3.21
2.11
1.29
0.76
0.44
0.27
0.19
0.19
0.26
0.37
0.45
0.44
0.26
-0.12
-0.70
-1.47
-2.38
-3.31
-4.09
-4.47
-4.22
-3.24
-1.59
0.47
2.58
4.41
5.74
6.51
6.73
6.51
5.93
5.09
4.10
3.05
2.04
1.13
0.32
-0.40
-1.07
-1.68
-2.22
-2.63
-2.86
-2.90
-2.79
-2.61
-2.46
-2.51
-2.84
-3.50
-4.39
-5.32
-5.99
-6.13
-5.53
-4.18
-2.18
0.17
2.52
4.54
5.99
6.75
6.85
6.41
5.59
4.55
3.44
2.35
1.39
0.62
0.08
-0.23
-0.40
-0.51
-0.64
-0.83
-1.06
-1.30
-1.52
-1.77
-2.16
-2.75
-3.56
-4.49
-5.35
-5.92
-6.04
-5.63
-4.68
-3.28
-1.53
0.43
2.46
4.34
5.88
6.91
7.30
7.05
6.24
5.07
3.77
2.53
1.50
0.71
0.11
-0.39
-0.89
-1.38
-1.81
-2.10
-2.19
-2.11
-1.97
-1.95
-2.21
-2.88
-3.95
-5.24
-6.47
-7.26
-7.27
-6.35
-4.56
-2.17
0.38
2.69
4.48
5.63
6.20
6.32
6.11
5.66
5.00
4.20
3.33
2.50
1.78
1.19
0.70
0.25
-0.20
-0.63
-0.98
-1.18
-1.21
-1.14
-1.12
-1.30
-1.80
-2.64
-3.75
-5.00
-6.19
-7.11
-7.52
-7.22
-6.08
-4.13
-1.61
1.09
3.51
5.29
6.30
6.63
6.48
6.09
5.55
4.85
3.91
2.74
1.44
0.18
-0.86
-1.62
-2.13
-2.48
-2.75
-2.92
-2.93
-2.75
-2.43
-2.14
-2.08
-2.42
-3.23
-4.42
-5.80
-7.08
-7.97
-8.21
-7.64
-6.25
-4.18
-1.72
0.77
3.01
4.80
6.10
6.95
7.38
7.38
6.95
6.12
5.00
3.80
2.75
2.05
1.73
1.68
1.72
1.64
1.35
0.88
0.35
-0.11
-0.45
-0.69
-0.97
-1.46
-2.26
-3.42
-4.82
-6.24
-7.35
-7.83
-7.44
-6.14
-4.09
-1.64
0.86
3.09
4.93
6.38
7.50
8.35
8.88
9.07
8.86
8.31
7.53
6.69
5.92
5.30
4.82
4.47
4.20
4.01
3.87
3.75
3.57
3.27
2.82
2.25
1.66
1.14
0.73
0.41
0.13
-0.20
-0.61
-1.11
-1.72
-2.43
-3.24
-4.11
-4.94
-5.64
-6.13
-6.46
-6.77
-7.25
-8.03
-9.07
-10.15
-10.90
-10.95
-10.08
-8.31
-5.89
-3.16
-0.45
2.01
4.10
5.79
7.05
7.87
8.21
8.07
7.51
6.67
5.71
4.78
4.01
3.43
3.03
2.75
2.55
2.37
2.21
2.08
1.97
1.88
1.76
1.55
1.23
0.76
0.16
-0.52
-1.21
-1.85
-2.39
-2.85
-3.27
-3.75
-4.38
-5.20
-6.20
-7.28
-8.31
-9.08
-9.37
-8.99
-7.79
-5.80
-3.25
-0.47
2.12
4.22
5.65
6.43
6.71
6.67
6.47
6.17
5.76
5.21
4.54
3.83
3.20
2.77
2.57
2.55
2.59
2.57
2.44
2.25
2.04
1.87
1.68
1.37
0.81
0.01
-0.96
-1.91
-2.70
-3.24
-3.58
-3.83
-4.12
-4.55
-5.16
-5.91
-6.73
-7.47
-7.97
-8.00
-7.41
-6.12
-4.18
-1.82
0.64
2.86
4.55
5.64
6.14
6.22
6.04
5.73
5.35
4.89
4.36
3.76
3.11
2.45
1.86
1.39
1.10
1.02
1.15
1.41
1.71
1.95
2.07
2.02
1.78
1.34
0.69
-0.11
-0.98
-1.80
-2.49
-3.05
-3.61
-4.35
-5.35
-6.54
-7.67
-8.33
-8.21
-7.15
-5.30
-2.97
-0.55
1.63
3.42
4.80
5.79
6.41
6.60
6.31
5.53
4.36
3.00
1.71
0.70
0.08
-0.17
-0.17
-0.04
0.08
0.14
0.12
0.05
-0.05
-0.13
-0.22
-0.34
-0.58
-0.99
-1.61
-2.40
-3.32
-4.31
-5.29
-6.14
-6.69
-6.75
-6.13
-4.78
-2.84
-0.59
1.64
3.58
5.08
6.12
6.75
7.00
6.88
6.40
5.64
4.68
3.66
2.71
1.90
1.33
1.00
0.87
0.82
0.70
0.42
-0.00
-0.43
-0.67
-0.63
-0.35
-0.07
-0.07
-0.55
-1.57
-2.99
-4.52
-5.85
-6.69
-6.86
-6.29
-5.04
-3.30
-1.31
0.66
2.40
3.78
4.69
5.10
4.99
4.38
3.38
2.16
0.91
-0.20
-1.09
-1.74
-2.18
-2.43
-2.51
-2.45
-2.31
-2.16
-2.05
-2.03
-2.11
-2.31
-2.62
-3.09
-3.70
-4.43
-5.16
-5.74
-5.98
-5.74
-4.95
-3.63
-1.89
0.10
2.11
3.92
5.34
6.22
6.49
6.15
5.26
3.98
2.55
1.23
0.24
-0.35
-0.63
-0.79
-0.99
-1.29
-1.61
-1.84
-1.86
-1.69
-1.46
-1.36
-1.54
-2.06
-2.86
-3.80
-4.68
-5.31
-5.52
-5.15
-4.16
-2.60
-0.67
1.37
3.20
4.59
5.41
5.68
5.51
5.03
4.37
3.61
2.80
2.00
1.26
0.61
0.06
-0.42
-0.88
-1.33
-1.71
-1.94
-1.95
-1.72
-1.35
-1.02
-0.95
-1.29
-2.11
-3.32
-4.68
-5.86
-6.47
-6.25
-5.06
-3.02
-0.44
2.26
4.66
6.44
7.45
7.72
7.39
6.67
5.73
4.72
3.68
2.63
1.56
0.51
-0.44
-1.21
-1.73
-1.98
-2.00
-1.84
-1.61
-1.39
-1.28
-1.37
-1.74
-2.45
-3.49
-4.72
-5.89
-6.68
-6.77
-5.98
-4.33
-2.06
0.43
2.73
4.53
5.68
6.18
6.16
5.76
5.14
4.44
3.75
3.14
2.58
2.00
1.32
0.54
-0.28
-1.00
-1.47
-1.67
-1.65
-1.56
-1.56
-1.75
-2.15
-2.77
-3.58
-4.52
-5.43
-6.11
-6.25
-5.62
-4.17
-2.04
0.39
2.70
4.56
5.85
6.58
6.88
6.81
6.41
5.67
4.62
3.38
2.13
1.04
0.23
-0.28
-0.55
-0.67
-0.72
-0.76
-0.84
-0.99
-1.24
-1.62
-2.11
-2.73
-3.49
-4.37
-5.31
-6.12
-6.57
-6.40
-5.47
-3.82
-1.65
0.69
2.88
4.67
5.96
6.74
7.06
6.95
6.44
5.59
4.48
3.29
2.20
1.36
0.80
0.44
0.14
-0.20
-0.61
-1.04
-1.37
-1.54
-1.56
-1.55
-1.65
-2.00
-2.67
-3.60
-4.63
-5.51
-5.99
-5.86
-5.02
-3.48
-1.44
0.83
3.02
4.84
6.10
6.69
6.66
6.16
5.38
4.52
3.69
2.90
2.09
1.21
0.26
-0.67
-1.43
-1.90
-2.04
-1.96
-1.83
-1.78
-1.85
-2.02
-2.20
-2.40
-2.70
-3.20
-3.95
-4.84
-5.58
-5.82
-5.27
-3.85
-1.77
0.62
2.89
4.74
6.01
6.73
7.04
7.01
6.70
6.07
5.11
3.88
2.53
1.25
0.21
-0.51
-0.96
-1.22
-1.38
-1.49
-1.53
-1.48
-1.37
-1.28
-1.31
-1.55
-2.08
-2.85
-3.78
-4.69
-5.38
-5.66
-5.38
-4.50
-3.05
-1.17
0.93
3.01
4.81
6.13
6.85
6.96
6.51
5.66
4.57
3.42
2.35
1.45
0.79
0.35
0.06
-0.22
-0.59
-1.05
-1.53
-1.90
-2.05
-1.99
-1.89
-1.95
-2.36
-3.18
-4.30
-5.48
-6.40
-6.77
-6.39
-5.23
-3.39
-1.16
1.15
3.21
4.81
5.87
6.41
6.53
6.29
5.76
4.97
3.98
2.89
1.82
0.89
0.19
-0.28
-0.57
-0.79
-1.00
-1.26
-1.54
-1.78
-1.92
-2.00
-2.08
-2.31
-2.82
-3.67
-4.79
-5.96
-6.86
-7.19
-6.72
-5.39
-3.39
-1.03
1.29
3.24
4.62
5.39
5.62
5.43
4.90
4.10
3.10
2.01
0.93
0.01
-0.71
-1.21
-1.59
-1.93
-2.33
-2.78
-3.21
-3.54
-3.73
-3.80
-3.86
-3.98
-4.26
-4.70
-5.26
-5.86
-6.35
-6.52
-6.17
-5.15
-3.44
-1.18
1.33
3.76
5.81
7.27
8.11
8.38
8.20
7.71
7.02
6.25
5.47
4.76
4.17
3.72
3.40
3.20
3.06
2.95
2.83
2.69
2.55
2.44
2.36
2.26
2.06
1.65
0.98
0.07
-0.97
-1.95
-2.71
-3.10
-3.07
-2.60
-1.72
-0.49
0.98
2.56
4.05
5.33
6.29
6.92
7.25
7.27
6.95
6.25
5.19
3.91
2.67
1.71
1.22
1.19
1.47
1.85
2.13
2.24
2.17
2.00
1.79
1.58
1.37
1.15
0.89
0.57
0.20
-0.20
-0.63
-1.09
-1.62
-2.27
-3.04
-3.85
-4.62
-5.26
-5.81
-6.38
-7.10
-7.96
-8.76
-9.13
-8.67
-7.22
-4.91
-2.16
0.48
2.61
4.09
5.00
5.52
5.80
5.81
5.45
4.64
3.45
2.11
0.91
0.09
-0.30
-0.37
-0.34
-0.38
-0.56
-0.80
-0.92
-0.81
-0.47
-0.08
0.15
0.03
-0.50
-1.31
-2.18
-2.89
-3.33
-3.58
-3.82
-4.26
-5.03
-6.07
-7.20
-8.10
-8.47
-8.13
-7.03
-5.31
-3.20
-1.00
1.01
2.63
3.75
4.37
4.58
4.48
4.18
3.78
3.30
2.78
2.21
1.60
0.98
0.40
-0.10
-0.48
-0.75
-0.90
-0.94
-0.83
-0.56
-0.14
0.33
0.70
0.81
0.54
-0.12
-1.13
-2.36
-3.67
-4.92
-5.97
-6.64
-6.73
-6.09
-4.72
-2.80
-0.66
1.38
3.08
4.38
5.31
5.98
6.39
6.47
6.10
5.26
4.06
2.74
1.57
0.74
0.27
0.09
0.05
0.04
-0.01
-0.06
-0.08
-0.03
0.07
0.15
0.15
-0.00
-0.37
-0.95
-1.72
-2.63
-3.56
-4.33
-4.76
-4.69
-4.06
-2.91
-1.40
0.30
2.03
3.66
5.06
6.09
6.60
6.51
5.82
4.71
3.43
2.26
1.34
0.73
0.33
0.02
-0.28
-0.58
-0.82
-0.92
-0.84
-0.63
-0.40
-0.26
-0.26
-0.37
-0.48
-0.48
-0.32
-0.03
0.32
0.71
1.20
1.89
2.87
4.12
5.54
6.98
8.30
9.39
10.23
10.79
11.07
11.08
10.84
10.51
10.23
10.15
10.32
10.64
10.88
10.74
10.03
8.67
6.81
4.73
2.71
0.95
-0.51
-1.76
-2.92
-4.06
-5.13
-5.92
-6.22
-5.83
-4.67
-2.85
-0.58
1.85
4.12
5.90
6.96
7.17
6.51
5.08
3.08
0.75
-1.70
-4.09
-6.34
-8.40
-10.35
-12.26
-14.18
-16.08
-17.83
-19.23
-20.06
-20.25
-19.84
-19.07
-18.27
-17.74
-17.67
-18.10
-18.84
-19.55
-19.78
-19.11
-17.26
-14.19
-10.17
-5.66
-1.24
2.61
5.61
7.69
8.95
9.56
9.67
9.34
8.63
7.61
6.42
5.25
4.26
3.56
3.11
2.81
2.53
2.20
1.81
1.41
1.00
0.54
-0.10
-1.04
-2.34
-3.91
-5.58
-7.05
-7.99
-8.13
-7.34
-5.61
-3.14
-0.22
2.76
5.45
7.59
9.06
9.86
10.07
9.81
9.18
8.30
7.27
6.18
5.10
4.08
3.13
2.27
1.48
0.75
0.11
-0.38
-0.72
-0.93
-1.14
-1.50
-2.15
-3.10
-4.19
-5.12
-5.51
-5.05
-3.57
-1.15
1.93
5.33
8.67
11.68
14.17
16.02
17.19
17.65
17.48
16.79
15.76
14.55
13.31
12.11
10.98
9.95
9.04
8.29
7.68
7.16
6.64
6.03
5.26
4.30
3.12
1.66
-0.16
-2.39
-4.94
-7.56
-9.84
-11.33
-11.72
-10.90
-9.01
-6.38
-3.38
-0.35
2.48
4.94
6.90
8.24
8.84
8.62
7.59
5.88
3.73
1.43
-0.73
-2.57
-4.02
-5.10
-5.86
-6.31
-6.44
-6.24
-5.79
-5.26
-4.93
-5.09
-5.90
-7.37
-9.35
-11.64
-13.99
-16.18
-17.95
-19.02
-19.13
-18.18
-16.30
-13.85
-11.33
-9.16
-7.59
-6.61
-6.06
-5.78
-5.70
-5.84
-6.22
-6.79
-7.39
-7.86
-8.07
-8.04
-7.90
-7.85
-8.02
-8.48
-9.21
-10.17
-11.33
-12.70
-14.28
-16.04
-17.86
-19.52
-20.78
-21.40
-21.22
-20.23
-18.52
-16.28
-13.73
-11.07
-8.49
-6.11
-4.02
-2.25
-0.76
0.52
1.74
3.01
4.42
5.92
7.41
8.77
9.94
10.97
12.03
13.28
14.80
16.56
18.37
19.99
21.18
21.83
21.96
21.74
21.47
21.51
22.20
23.73
26.03
28.76
31.40
33.37
34.28
33.97
32.51
30.09
26.95
23.32
19.48
15.69
12.26
9.37
7.05
5.16
3.45
1.69
-0.24
-2.36
-4.59
-6.85
-9.06
-11.22
-13.27
-15.16
-16.84
-18.25
-19.37
-20.20
-20.75
-21.01
-20.94
-20.53
-19.79
-18.82
-17.78
-16.93
-16.55
-16.88
-18.05
-19.98
-22.44
-25.08
-27.60
-29.81
-31.63
-33.11
-34.21
-34.80
-34.61
-33.37
-30.85
-27.08
-22.31
-16.98
-11.63
-6.71
-2.49
0.94
3.68
5.82
7.41
8.38
8.62
8.11
7.00
5.67
4.64
4.37
5.17
7.01
9.60
12.48
15.22
17.50
19.16
20.22
20.75
20.83
20.49
19.73
18.55
16.99
15.12
13.06
10.92
8.81
6.76
4.80
2.95
1.24
-0.27
-1.48
-2.35
-2.88
-3.21
-3.49
-3.89
-4.51
-5.36
-6.38
-7.51
-8.65
-9.66
-10.29
-10.22
-9.13
-6.82
-3.34
1.03
5.86
10.75
15.42
19.69
23.42
26.40
28.43
29.33
29.11
27.97
26.24
24.20
22.00
19.65
17.10
14.38
11.66
9.22
7.27
5.89
4.95
4.18
3.31
2.12
0.51
-1.49
-3.78
-6.12
-8.25
-9.83
-10.55
-10.24
-8.91
-6.80
-4.30
-1.85
0.20
1.64
2.43
2.62
2.36
1.81
1.19
0.69
0.47
0.61
1.06
1.69
2.34
2.89
3.31
3.63
3.88
4.12
4.32
4.48
4.54
4.43
4.08
3.38
2.24
0.64
-1.34
-3.46
-5.37
-6.69
-7.13
-6.54
-4.99
-2.80
-0.38
1.84
3.56
4.72
5.42
5.88
6.28
6.68
7.03
7.21
7.14
6.82
6.41
6.10
6.11
6.55
7.40
8.54
9.73
10.72
11.26
11.18
10.40
8.96
6.95
4.50
1.69
-1.43
-4.81
-8.35
-11.87
-15.09
-17.73
-19.59
-20.68
-21.17
-21.34
-21.43
-21.60
-21.88
-22.15
-22.24
-21.87
-20.77
-18.69
-15.53
-11.40
-6.67
-1.84
2.57
6.21
8.93
10.74
11.73
11.89
11.17
9.47
6.81
3.38
-0.46
-4.27
-7.60
-10.03
-11.25
-11.08
-9.51
-6.72
-3.05
1.12
5.42
9.61
13.54
16.99
19.68
21.21
21.27
19.78
17.02
13.55
9.98
6.80
4.25
2.29
0.77
-0.46
-1.48
-2.31
-2.98
-3.56
-4.21
-5.07
-6.21
-7.54
-8.85
-9.78
-9.98
-9.21
-7.43
-4.78
-1.50
2.09
5.73
9.18
12.23
14.67
16.33
17.16
17.25
16.82
16.11
15.31
14.49
13.61
12.61
11.39
9.91
8.17
6.18
3.99
1.69
-0.56
-2.65
-4.50
-6.17
-7.80
-9.51
-11.38
-13.32
-15.19
-16.84
-18.18
-19.23
-20.09
-20.80
-21.36
-21.71
-21.79
-21.65
-21.46
-21.46
-21.74
-22.21
-22.44
-21.84
-19.85
-16.16
-10.84
-4.27
3.04
10.65
18.21
25.46
32.09
37.73
41.99
44.62
45.56
44.96
43.05
39.96
35.77
30.52
24.40
17.84
11.49
6.10
2.33
0.53
0.61
2.11
4.29
6.34
7.63
7.88
7.15
5.72
3.96
2.17
0.52
-0.91
-2.14
-3.23
-4.31
-5.53
-7.01
-8.82
-10.86
-12.90
-14.58
-15.62
-15.84
-15.30
-14.24
-12.97
-11.80
-10.90
-10.30
-9.92
-9.64
-9.38
-9.08
-8.72
-8.24
-7.57
-6.62
-5.35
-3.80
-2.10
-0.40
1.16
2.51
3.59
4.39
4.85
4.93
4.58
3.84
2.85
1.80
0.86
0.18
-0.23
-0.44
-0.52
-0.55
-0.57
-0.60
-0.65
-0.76
-0.94
-1.18
-1.45
-1.71
-1.94
-2.17
-2.40
-2.61
-2.74
-2.68
-2.41
-2.03
-1.71
-1.60
-1.79
-2.18
-2.59
-2.83
-2.82
-2.59
-2.30
-2.10
-2.04
-2.11
-2.23
-2.33
-2.44
-2.60
-2.86
-3.21
-3.55
-3.73
-3.68
-3.39
-2.98
-2.59
-2.39
-2.40
-2.59
-2.85
-3.04
-3.10
-2.98
-2.70
-2.33
-1.96
-1.70
-1.63
-1.76
-2.02
-2.29
-2.45
-2.45
-2.35
-2.20
-2.08
-2.00
-1.93
-1.86
-1.80
-1.81
-1.93
-2.16
-2.45
-2.70
-2.84
-2.86
-2.82
-2.78
-2.82
-2.98
-3.22
-3.49
-3.71
-3.83
-3.86
-3.86
-3.90
-4.08
-4.43
-4.97
-5.67
-6.52
-7.44
-8.34
-9.13
-9.69
-10.03
-10.23
-10.50
-11.09
-12.21
-13.89
-16.03
-18.35
-20.51
-22.23
-23.35
-23.87
-23.92
-23.72
-23.47
-23.36
-23.49
-23.86
-24.35
-24.68
-24.51
-23.45
-21.28
-18.02
-13.97
-9.63
-5.53
-2.08
0.51
2.23
3.14
3.33
2.89
1.94
0.68
-0.63
-1.73
-2.41
-2.58
-2.27
-1.57
-0.61
0.50
1.68
2.83
3.86
4.65
5.05
4.93
4.20
2.88
1.20
-0.51
-1.76
-2.14
-1.34
0.69
3.77
7.49
11.34
14.85
17.68
19.69
20.90
21.48
21.61
21.42
20.93
20.13
19.01
17.64
16.18
14.79
13.62
12.68
11.94
11.34
10.84
10.45
10.16
9.90
9.49
8.71
7.42
5.64
3.63
1.83
0.75
0.79
2.11
4.60
7.88
11.43
14.78
17.58
19.69
21.18
22.17
22.81
23.14
23.16
22.86
22.25
21.46
20.68
20.11
19.91
20.11
20.63
21.29
21.90
22.35
22.62
22.75
22.82
22.89
23.01
23.19
23.50
23.99
24.63
25.26
25.53
25.10
23.70
21.31
18.17
14.68
11.26
8.22
5.68
3.64
2.02
0.69
-0.47
-1.55
-2.62
-3.67
-4.64
-5.42
-5.90
-6.01
-5.72
-5.09
-4.22
-3.27
-2.45
-2.08
-2.43
-3.68
-5.77
-8.39
-11.04
-13.28
-14.87
-15.89
-16.71
-17.77
-19.35
-21.48
-23.88
-26.14
-27.85
-28.76
-28.78
-27.96
-26.44
-24.34
-21.84
-19.10
-16.31
-13.64
-11.27
-9.32
-7.84
-6.78
-6.00
-5.27
-4.33
-2.92
-0.86
1.90
5.28
9.03
12.79
16.13
18.58
19.77
19.48
17.69
14.64
10.68
6.21
1.66
-2.62
-6.25
-8.90
-10.24
-10.14
-8.67
-6.21
-3.33
-0.64
1.38
2.51
2.76
2.26
1.21
-0.19
-1.75
-3.27
-4.52
-5.33
-5.64
-5.53
-5.22
-5.00
-5.03
-5.34
-5.76
-6.05
-6.01
-5.60
-4.95
-4.30
-3.87
-3.71
-3.69
-3.49
-2.73
-1.14
1.33
4.53
8.09
11.59
14.62
16.84
18.07
18.28
17.58
16.23
14.52
12.72
10.99
9.31
7.56
5.52
2.96
-0.26
-4.18
-8.65
-13.39
-17.97
-22.00
-25.13
-27.27
-28.53
-29.21
-29.66
-30.15
-30.79
-31.53
-32.18
-32.51
-32.30
-31.37
-29.61
-26.96
-23.45
-19.23
-14.59
-9.91
-5.60
-1.98
0.81
2.78
4.05
4.73
4.82
4.29
3.12
1.46
-0.41
-2.12
-3.41
-4.18
-4.57
-4.77
-4.92
-4.96
-4.63
-3.64
-1.83
0.78
3.91
7.19
10.28
12.99
15.25
17.10
18.59
19.71
20.38
20.50
19.99
18.85
17.16
15.07
12.76
10.39
8.14
6.19
4.68
3.65
2.97
2.35
1.42
-0.17
-2.56
-5.59
-8.85
-11.81
-14.03
-15.21
-15.25
-14.15
-11.97
-8.80
-4.78
-0.11
4.95
10.09
15.03
19.52
23.32
26.25
28.19
29.08
28.99
28.03
26.37
24.17
21.54
18.55
15.26
11.77
8.16
4.52
0.90
-2.63
-5.95
-8.93
-11.45
-13.53
-15.44
-17.64
-20.70
-25.06
-30.83
-37.64
-44.66
-50.75
-54.79
-56.02
-54.34
-50.32
-45.03
-39.64
-35.00
-31.40
-28.60
-26.09
-23.46
-20.58
-17.59
-14.68
-11.98
-9.44
-6.99
-4.64
-2.63
-1.31
-1.00
-1.91
-4.05
-7.33
-11.62
-16.79
-22.53
-28.25
-32.96
-35.49
-34.76
-30.23
-22.13
-11.41
0.49
12.12
22.33
30.42
36.11
39.44
40.62
40.01
38.09
35.46
32.74
30.41
28.72
27.64
26.98
26.47
25.91
25.24
24.49
23.74
22.97
22.09
20.92
19.32
17.25
14.83
12.35
10.19
8.72
8.19
8.66
10.00
11.95
14.14
16.20
17.85
18.93
19.36
19.22
18.61
17.65
16.43
15.05
13.58
12.07
10.57
9.09
7.65
6.25
4.91
3.64
2.46
1.41
0.50
-0.28
-0.94
-1.55
-2.17
-2.86
-3.57
-4.19
-4.48
-4.20
-3.16
-1.28
1.29
4.30
7.40
10.25
12.54
14.04
14.61
14.20
12.89
10.87
8.42
5.87
3.49
1.47
-0.20
-1.67
-3.18
-4.91
-6.96
-9.32
-11.93
-14.71
-17.68
-20.87
-24.33
-28.04
-31.88
-35.61
-38.92
-41.39
-42.61
-42.24
-40.14
-36.55
-32.03
-27.43
-23.57
-21.01
-19.88
-19.90
-20.54
-21.20
-21.43
-21.02
-19.97
-18.46
-16.74
-15.04
-13.51
-12.16
-10.94
-9.73
-8.47
-7.13
-5.75
-4.38
-3.15
-2.16
-1.57
-1.53
-2.12
-3.32
-4.88
-6.39
-7.38
-7.41
-6.23
-3.89
-0.72
2.79
6.08
8.79
10.76
12.11
13.11
14.10
15.31
16.88
18.77
20.89
23.06
25.11
26.79
27.86
28.15
27.59
26.37
24.82
23.35
22.28
21.78
21.81
22.23
22.85
23.50
24.07
24.45
24.58
24.40
23.95
23.36
22.83
22.56
22.65
23.02
23.45
23.62
23.20
21.97
19.84
16.87
13.23
9.14
4.86
0.69
-3.10
-6.30
-8.80
-10.64
-11.95
-12.81
-13.21
-13.00
-12.02
-10.20
-7.79
-5.36
-3.66
-3.35
-4.63
-7.17
-10.12
-12.47
-13.41
-12.65
-10.45
-7.44
-4.35
-1.71
0.24
1.49
2.14
2.27
1.93
1.14
0.01
-1.29
-2.53
-3.48
-4.01
-4.07
-3.79
-3.34
-2.94
-2.78
-2.93
-3.37
-4.01
-4.79
-5.64
-6.54
-7.43
-8.15
-8.47
-8.13
-6.96
-4.93
-2.21
0.88
4.00
6.81
9.06
10.58
11.32
11.33
10.77
9.86
8.81
7.77
6.83
6.04
5.39
4.91
4.56
4.22
3.74
2.95
1.81
0.45
-0.91
-2.04
-2.87
-3.53
-4.26
-5.25
-6.49
-7.73
-8.54
-8.50
-7.41
-5.34
-2.64
0.22
2.82
4.86
6.24
6.98
7.18
6.91
6.26
5.32
4.20
3.05
1.99
1.10
0.40
-0.17
-0.64
-1.04
-1.35
-1.56
-1.68
-1.78
-1.97
-2.37
-3.10
-4.17
-5.49
-6.83
-7.87
-8.29
-7.82
-6.38
-4.10
-1.31
1.58
4.17
6.19
7.52
8.20
8.36
8.16
7.70
6.97
5.97
4.72
3.29
1.86
0.63
-0.29
-0.87
-1.23
-1.51
-1.83
-2.22
-2.64
-3.07
-3.56
-4.20
-5.11
-6.28
-7.52
-8.51
-8.88
-8.37
-6.95
-4.78
-2.19
0.47
2.89
4.92
6.47
7.50
8.00
8.00
7.55
6.73
5.68
4.51
3.31
2.13
1.00
-0.04
-0.94
-1.67
-2.17
-2.45
-2.56
-2.59
-2.70
-3.02
-3.68
-4.72
-6.07
-7.54
-8.81
-9.50
-9.32
-8.14
-6.06
-3.40
-0.52
2.23
4.66
6.67
8.22
9.26
9.66
9.35
8.34
6.79
5.00
3.25
1.78
0.67
-0.12
-0.66
-1.06
-1.36
-1.61
-1.83
-2.08
-2.42
-2.92
-3.64
-4.60
-5.78
-7.11
-8.38
-9.32
-9.63
-9.07
-7.59
-5.35
-2.68
0.05
2.54
4.59
6.10
7.01
7.26
6.87
5.92
4.61
3.16
1.81
0.63
-0.37
-1.30
-2.24
-3.21
-4.14
-4.87
-5.26
-5.21
-4.72
-3.96
-3.15
-2.62
-2.60
-3.20
-4.31
-5.64
-6.74
-7.11
-6.33
-4.19
-0.74
3.70
8.61
13.45
17.75
21.24
23.80
25.40
26.05
25.72
24.41
22.19
19.27
15.98
12.72
9.76
7.25
5.13
3.25
1.46
-0.29
-1.91
-3.30
-4.35
-5.09
-5.69
-6.38
-7.37
-8.75
-10.44
-12.21
-13.70
-14.56
-14.52
-13.49
-11.57
-9.05
-6.28
-3.64
-1.43
0.13
1.00
1.21
0.91
0.32
-0.35
-0.97
-1.51
-2.01
-2.56
-3.11
-3.58
-3.83
-3.78
-3.50
-3.12
-2.85
-2.78
-2.95
-3.32
-3.83
-4.46
-5.20
-5.92
-6.39
-6.31
-5.43
-3.64
-1.07
1.99
5.21
8.29
11.05
13.39
15.25
16.57
17.31
17.52
17.35
17.07
16.97
17.26
17.91
18.66
19.10
18.83
17.61
15.42
12.34
8.47
3.82
-1.67
-7.98
-14.88
-21.90
-28.35
-33.44
-36.52
-37.20
-35.43
-31.54
-26.21
-20.27
-14.64
-10.11
-7.19
-6.11
-6.76
-8.86
-11.93
-15.44
-18.82
-21.57
-23.29
-23.80
-23.11
-21.46
-19.13
-16.44
-13.62
-10.85
-8.27
-6.02
-4.24
-3.09
-2.65
-2.91
-3.73
-4.89
-6.09
-6.98
-7.25
-6.66
-5.11
-2.68
0.40
3.81
7.18
10.18
12.56
14.14
14.85
14.68
13.73
12.11
9.96
7.46
4.81
2.24
0.03
-1.60
-2.51
-2.68
-2.19
-1.20
0.19
1.84
3.62
5.32
6.64
7.29
7.12
6.22
4.93
3.78
3.26
3.66
4.99
6.99
9.23
11.30
12.94
14.02
14.55
14.59
14.21
13.45
12.37
11.02
9.51
7.96
6.51
5.26
4.23
3.38
2.66
2.00
1.43
0.97
0.65
0.43
0.17
-0.28
-1.04
-2.14
-3.43
-4.68
-5.63
-6.07
-5.91
-5.13
-3.82
-2.09
-0.10
1.94
3.85
5.43
6.57
7.20
7.33
7.00
6.30
5.33
4.23
3.14
2.16
1.40
0.86
0.52
0.30
0.09
-0.17
-0.50
-0.90
-1.33
-1.78
-2.30
-3.00
-3.93
-5.05
-6.13
-6.85
-6.86
-5.98
-4.25
-1.95
0.54
2.88
4.84
6.35
7.39
7.99
8.15
7.90
7.32
6.53
5.71
4.97
4.33
3.70
2.99
2.12
1.12
0.12
-0.71
-1.25
-1.47
-1.47
-1.44
-1.62
-2.22
-3.28
-4.69
-6.14
-7.23
-7.59
-7.03
-5.57
-3.46
-1.04
1.34
3.45
5.14
6.33
7.00
7.13
6.79
6.10
5.25
4.40
3.63
2.92
2.18
1.31
0.33
-0.66
-1.51
-2.09
-2.39
-2.50
-2.57
-2.74
-3.08
-3.59
-4.28
-5.13
-6.13
-7.19
-8.09
-8.50
-8.12
-6.74
-4.44
-1.54
1.49
4.18
6.19
7.44
7.99
8.01
7.66
7.05
6.20
5.14
3.94
2.73
1.66
0.85
0.33
0.02
-0.20
-0.40
-0.56
-0.63
-0.55
-0.39
-0.36
-0.73
-1.68
-3.22
-5.09
-6.88
-8.13
-8.50
-7.89
-6.40
-4.31
-1.99
0.26
2.19
3.65
4.59
5.02
5.00
4.59
3.90
3.04
2.12
1.23
0.45
-0.22
-0.79
-1.31
-1.82
-2.31
-2.79
-3.19
-3.47
-3.59
-3.55
-3.40
-3.24
-3.17
-3.26
-3.52
-3.81
-3.97
-3.79
-3.13
-1.98
-0.47
1.19
2.77
4.08
5.03
5.58
5.74
5.54
5.00
4.18
3.14
1.98
0.82
-0.24
-1.14
-1.82
-2.30
-2.58
-2.74
-2.82
-2.89
-3.05
-3.38
-3.98
-4.89
-6.07
-7.35
-8.44
-8.98
-8.67
-7.37
-5.17
-2.40
0.53
3.21
5.38
6.95
7.96
8.48
8.56
8.20
7.43
6.31
4.96
3.59
2.35
1.37
0.67
0.20
-0.13
-0.37
-0.54
-0.64
-0.71
-0.85
-1.20
-1.91
-3.06
-4.53
-6.09
-7.36
-7.98
-7.72
-6.56
-4.72
-2.53
-0.36
1.52
2.99
4.05
4.76
5.19
5.34
5.18
4.73
4.06
3.32
2.69
2.29
2.14
2.17
2.29
2.46
2.70
3.07
3.62
4.31
5.00
5.44
5.37
4.58
2.98
0.70
-1.94
-4.48
-6.44
-7.45
-7.37
-6.29
-4.47
-2.25
0.06
2.20
3.96
5.15
5.63
5.37
4.47
3.15
1.71
0.39
-0.64
-1.35
-1.79
-2.05
-2.22
-2.39
-2.60
-2.90
-3.28
-3.75
-4.24
-4.72
-5.18
-5.65
-6.16
-6.73
-7.27
-7.60
-7.50
-6.75
-5.29
-3.20
-0.71
1.88
4.28
6.24
7.59
8.23
8.14
7.35
6.00
4.34
2.66
1.23
0.24
-0.32
-0.57
-0.74
-0.99
-1.41
-1.92
-2.39
-2.68
-2.73
-2.60
-2.47
-2.55
-3.01
-3.90
-5.11
-6.38
-7.35
-7.68
-7.19
-5.85
-3.84
-1.43
1.09
3.48
5.55
7.16
8.21
8.62
8.37
7.55
6.31
4.90
3.56
2.48
1.72
1.24
0.87
0.51
0.09
-0.37
-0.77
-1.03
-1.13
-1.12
-1.15
-1.38
-1.93
-2.86
-4.11
-5.53
-6.85
-7.77
-7.99
-7.33
-5.84
-3.71
-1.28
1.13
3.25
4.90
5.98
6.44
6.28
5.56
4.44
3.14
1.89
0.84
0.01
-0.70
-1.42
-2.23
-3.08
-3.90
-4.58
-5.10
-5.47
-5.74
-5.95
-6.15
-6.45
-6.93
-7.69
-8.68
-9.68
-10.36
-10.36
-9.45
-7.66
-5.25
-2.60
-0.08
2.13
3.96
5.44
6.64
7.55
8.12
8.31
8.14
7.70
7.17
6.69
6.35
6.13
5.92
5.61
5.12
4.44
3.63
2.82
2.13
1.67
1.49
1.60
1.91
2.32
2.72
3.06
3.38
3.76
4.27
4.87
5.40
5.65
5.46
4.81
3.81
2.69
1.62
0.67
-0.17
-1.01
-1.92
-2.90
-3.89
-4.85
-5.77
-6.73
-7.82
-9.10
-10.53
-11.98
-13.30
-14.35
-15.08
-15.52
-15.77
-15.92
-16.06
-16.19
-16.24
-16.04
-15.38
-14.05
-11.94
-9.10
-5.70
-2.05
1.51
4.71
7.33
9.27
10.51
11.10
11.17
10.93
10.63
10.51
10.77
11.46
12.59
14.07
15.79
17.65
19.54
21.36
22.94
24.09
24.63
24.42
23.37
21.52
18.94
15.85
12.51
9.32
6.66
4.87
4.13
4.37
5.31
6.57
7.78
8.67
9.17
9.28
9.05
8.51
7.64
6.48
5.11
3.69
2.41
1.39
0.67
0.18
-0.24
-0.71
-1.31
-2.05
-2.89
-3.75
-4.62
-5.46
-6.28
-7.08
-7.86
-8.63
-9.35
-9.93
-10.26
-10.17
-9.56
-8.44
-6.93
-5.20
-3.49
-1.94
-0.68
0.26
0.82
0.96
0.69
0.09
-0.67
-1.40
-1.98
-2.38
-2.72
-3.12
-3.65
-4.26
-4.85
-5.27
-5.49
-5.52
-5.46
-5.37
-5.28
-5.20
-5.17
-5.27
-5.64
-6.34
-7.34
-8.40
-9.17
-9.30
-8.55
-6.93
-4.66
-2.11
0.35
2.42
3.95
4.91
5.35
5.38
5.10
4.57
3.85
2.96
1.95
0.88
-0.14
-0.97
-1.56
-1.92
-2.13
-2.32
-2.52
-2.71
-2.83
-2.86
-2.84
-2.88
-3.11
-3.61
-4.39
-5.43
-6.62
-7.82
-8.79
-9.24
-8.88
-7.61
-5.52
-2.93
-0.27
2.11
4.01
5.40
6.38
7.04
7.41
7.43
7.05
6.24
5.07
3.66
2.23
0.97
0.01
-0.57
-0.85
-0.93
-0.97
-1.07
-1.24
-1.45
-1.63
-1.75
-1.85
-2.04
-2.40
-2.99
-3.78
-4.73
-5.75
-6.76
-7.64
-8.20
-8.23
-7.48
-5.87
-3.48
-0.60
2.32
4.88
6.81
8.05
8.65
8.74
8.37
7.58
6.41
4.99
3.56
2.39
1.62
1.23
1.06
0.89
0.57
0.06
-0.54
-1.15
-1.70
-2.19
-2.63
-2.99
-3.22
-3.31
-3.32
-3.42
-3.82
-4.62
-5.75
-6.96
-7.91
-8.25
-7.78
-6.47
-4.47
-2.03
0.57
3.04
5.19
6.88
8.02
8.60
8.61
8.10
7.14
5.85
4.38
2.92
1.61
0.57
-0.19
-0.71
-1.05
-1.30
-1.51
-1.71
-1.89
-2.07
-2.22
-2.35
-2.46
-2.58
-2.78
-3.09
-3.59
-4.32
-5.28
-6.43
-7.65
-8.71
-9.30
-9.09
-7.84
-5.54
-2.48
0.88
3.98
6.44
8.11
9.07
9.46
9.40
8.90
7.92
6.49
4.78
3.04
1.54
0.46
-0.19
-0.47
-0.51
-0.42
-0.29
-0.23
-0.31
-0.54
-0.90
-1.31
-1.67
-1.95
-2.22
-2.56
-3.10
-3.90
-4.96
-6.21
-7.47
-8.51
-9.03
-8.77
-7.58
-5.53
-2.85
0.07
2.84
5.16
6.90
8.03
8.61
8.71
8.38
7.65
6.58
5.25
3.81
2.44
1.29
0.50
0.08
0.00
0.11
0.28
0.37
0.31
0.11
-0.21
-0.58
-0.96
-1.33
-1.72
-2.17
-2.75
-3.54
-4.53
-5.69
-6.86
-7.83
-8.34
-8.13
-7.06
-5.11
-2.47
0.52
3.41
5.80
7.44
8.27
8.42
8.09
7.43
6.53
5.39
4.03
2.61
1.33
0.44
0.04
0.03
0.14
0.06
-0.39
-1.20
-2.10
-2.81
-3.12
-3.01
-2.66
-2.34
-2.29
-2.64
-3.41
-4.54
-5.91
-7.34
-8.56
-9.21
-8.94
-7.54
-5.05
-1.81
1.61
4.66
6.91
8.19
8.62
8.41
7.82
7.01
6.07
5.00
3.85
2.68
1.62
0.76
0.16
-0.23
-0.47
-0.64
-0.78
-0.88
-0.94
-0.96
-1.00
-1.13
-1.39
-1.83
-2.44
-3.20
-4.09
-5.07
-6.07
-6.98
-7.59
-7.70
-7.12
-5.79
-3.78
-1.28
1.39
3.92
6.00
7.45
8.20
8.32
7.93
7.19
6.20
5.05
3.83
2.66
1.66
0.99
0.67
0.61
0.60
0.45
0.03
-0.62
-1.35
-1.99
-2.42
-2.63
-2.72
-2.83
-3.12
-3.72
-4.67
-5.95
-7.34
-8.49
-9.00
-8.54
-7.02
-4.58
-1.62
1.39
4.04
6.13
7.60
8.49
8.87
8.76
8.12
6.95
5.35
3.54
1.85
0.56
-0.19
-0.48
-0.52
-0.60
-0.90
-1.45
-2.11
-2.69
-3.03
-3.09
-2.98
-2.89
-3.03
-3.56
-4.52
-5.82
-7.20
-8.33
-8.83
-8.45
-7.08
-4.87
-2.13
0.72
3.31
5.38
6.83
7.69
8.04
7.94
7.44
6.57
5.37
3.95
2.43
1.00
-0.24
-1.20
-1.95
-2.59
-3.26
-4.04
-4.90
-5.69
-6.26
-6.53
-6.53
-6.45
-6.56
-7.09
-8.14
-9.62
-11.22
-12.55
-13.16
-12.76
-11.25
-8.82
-5.87
-2.91
-0.40
1.41
2.49
2.97
3.09
3.03
2.90
2.74
2.54
2.30
2.01
1.68
1.31
0.89
0.41
-0.13
-0.69
-1.21
-1.57
-1.71
-1.59
-1.28
-0.94
-0.75
-0.85
-1.33
-2.17
-3.25
-4.36
-5.26
-5.70
-5.52
-4.64
-3.13
-1.17
0.98
3.06
4.90
6.36
7.40
7.99
8.14
7.86
7.23
6.38
5.48
4.67
4.04
3.59
3.21
2.77
2.15
1.30
0.29
-0.75
-1.66
-2.31
-2.66
-2.78
-2.83
-3.01
-3.48
-4.31
-5.42
-6.59
-7.52
-7.89
-7.46
-6.14
-4.02
-1.37
1.46
4.10
6.29
7.86
8.80
9.17
9.12
8.78
8.31
7.77
7.21
6.64
6.03
5.36
4.65
3.93
3.30
2.79
2.40
2.08
1.72
1.24
0.59
-0.24
-1.20
-2.23
-3.24
-4.10
-4.67
-4.79
-4.33
-3.26
-1.67
0.27
2.33
4.31
6.08
7.51
8.52
9.06
9.07
8.58
7.68
6.52
5.26
4.07
3.04
2.20
1.55
1.03
0.58
0.12
-0.40
-1.00
-1.63
-2.26
-2.82
-3.33
-3.84
-4.46
-5.24
-6.12
-6.88
-7.25
-6.99
-5.97
-4.26
-2.07
0.36
2.77
5.00
6.91
8.42
9.45
9.99
10.10
9.90
9.52
9.06
8.52
7.86
6.99
5.92
4.71
3.50
2.42
1.57
0.96
0.51
0.13
-0.27
-0.75
-1.35
-2.09
-2.94
-3.82
-4.58
-5.06
-5.09
-4.57
-3.48
-1.93
-0.10
1.79
3.52
4.91
5.84
6.31
6.38
6.18
5.83
5.41
4.88
4.20
3.32
2.27
1.18
0.22
-0.48
-0.89
-1.06
-1.09
-1.08
-1.08
-1.10
-1.18
-1.39
-1.84
-2.56
-3.50
-4.47
-5.19
-5.34
-4.74
-3.37
-1.39
0.91
3.23
5.31
6.97
8.10
8.67
8.66
8.08
7.03
5.62
4.05
2.52
1.21
0.20
-0.49
-0.92
-1.20
-1.43
-1.64
-1.88
-2.13
-2.36
-2.53
-2.65
-2.76
-2.92
-3.21
-3.68
-4.27
-4.81
-5.07
-4.82
-3.94
-2.48
-0.64
1.25
2.88
4.07
4.73
4.92
4.76
4.38
3.87
3.29
2.64
1.92
1.15
0.39
-0.30
-0.86
-1.25
-1.54
-1.78
-2.02
-2.23
-2.37
-2.43
-2.46
-2.63
-3.09
-3.91
-4.97
-6.00
-6.66
-6.67
-5.91
-4.44
-2.46
-0.26
1.83
3.53
4.67
5.14
5.02
4.46
3.62
2.69
1.77
0.93
0.21
-0.39
-0.90
-1.38
-1.91
-2.55
-3.26
-3.93
-4.40
-4.58
-4.47
-4.24
-4.11
-4.30
-4.90
-5.84
-6.92
-7.81
-8.23
-7.95
-6.92
-5.21
-3.04
-0.66
1.69
3.80
5.51
6.72
7.39
7.53
7.21
6.54
5.69
4.78
3.92
3.15
2.45
1.74
0.99
0.17
-0.61
-1.23
-1.57
-1.57
-1.28
-0.89
-0.61
-0.66
-1.11
-1.87
-2.70
-3.29
-3.33
-2.62
-1.15
0.91
3.22
5.41
7.14
8.21
8.55
8.28
7.57
6.63
5.61
4.64
3.77
3.03
2.45
2.03
1.75
1.58
1.48
1.40
1.33
1.27
1.21
1.08
0.82
0.34
-0.38
-1.28
-2.24
-3.10
-3.70
-3.90
-3.61
-2.82
-1.59
-0.06
1.59
3.13
4.40
5.29
5.75
5.79
5.47
4.85
4.01
3.06
2.07
1.14
0.35
-0.25
-0.66
-0.91
-1.06
-1.20
-1.42
-1.71
-2.03
-2.31
-2.50
-2.67
-2.96
-3.54
-4.48
-5.69
-6.87
-7.66
-7.70
-6.87
-5.27
-3.17
-0.93
1.19
3.02
4.50
5.60
6.28
6.46
6.16
5.45
4.55
3.68
3.05
2.71
2.55
2.40
2.06
1.47
0.69
-0.10
-0.68
-0.86
-0.60
-0.03
0.63
1.07
1.07
0.51
-0.54
-1.84
-3.04
-3.77
-3.71
-2.71
-0.81
1.73
4.53
7.15
9.26
10.69
11.46
11.71
11.58
11.18
10.55
9.69
8.64
7.47
6.29
5.12
3.95
2.67
1.19
-0.48
-2.23
-3.83
-5.07
-5.86
-6.26
-6.47
-6.78
-7.41
-8.46
-9.86
-11.44
-12.95
-14.18
-14.95
-15.19
-14.88
-14.06
-12.82
-11.29
-9.63
-8.01
-6.58
-5.44
-4.62
-4.12
-3.88
-3.83
-3.91
-4.02
-4.06
-3.96
-3.71
-3.35
-3.00
-2.72
-2.52
-2.32
-2.00
-1.50
-0.87
-0.28
0.05
-0.04
-0.58
-1.46
-2.44
-3.29
-3.81
-3.86
-3.39
-2.39
-0.91
0.95
2.99
4.98
6.65
7.77
8.21
7.96
7.17
6.06
4.88
3.84
3.01
2.36
1.83
1.35
0.92
0.59
0.42
0.36
0.34
0.25
0.04
-0.22
-0.47
-0.68
-0.91
-1.30
-1.95
-2.82
-3.74
-4.44
-4.72
-4.49
-3.75
-2.59
-1.11
0.59
2.35
3.95
5.13
5.74
5.73
5.22
4.35
3.28
2.12
0.91
-0.24
-1.20
-1.84
-2.11
-2.09
-1.96
-1.89
-1.92
-1.99
-1.94
-1.71
-1.40
-1.21
-1.39
-2.04
-3.08
-4.25
-5.25
-5.83
-5.85
-5.31
-4.27
-2.84
-1.14
0.65
2.35
3.78
4.83
5.43
5.58
5.31
4.70
3.82
2.77
1.69
0.66
-0.22
-0.93
-1.46
-1.83
-2.05
-2.11
-2.02
-1.83
-1.64
-1.53
-1.62
-1.95
-2.54
-3.29
-4.04
-4.58
-4.77
-4.52
-3.85
-2.84
-1.59
-0.15
1.45
3.13
4.71
5.95
6.62
6.58
5.92
4.85
3.64
2.49
1.49
0.63
-0.08
-0.65
-1.03
-1.21
-1.26
-1.34
-1.57
-2.00
-2.58
-3.16
-3.62
-3.95
-4.24
-4.62
-5.19
-5.87
-6.44
-6.58
-6.02
-4.67
-2.66
-0.30
2.08
4.17
5.82
6.94
7.51
7.49
6.86
5.66
4.09
2.44
1.03
0.08
-0.44
-0.70
-0.95
-1.34
-1.87
-2.38
-2.71
-2.80
-2.74
-2.73
-2.97
-3.54
-4.42
-5.44
-6.38
-7.04
-7.22
-6.80
-5.77
-4.20
-2.22
-0.03
2.16
4.16
5.78
6.88
7.38
7.23
6.51
5.36
4.01
2.67
1.55
0.73
0.22
-0.11
-0.38
-0.70
-1.12
-1.57
-1.97
-2.25
-2.46
-2.68
-3.08
-3.76
-4.73
-5.88
-7.00
-7.83
-8.14
-7.77
-6.67
-4.89
-2.62
-0.14
2.25
4.29
5.82
6.79
7.22
7.20
6.81
6.11
5.19
4.15
3.12
2.20
1.43
0.78
0.17
-0.46
-1.11
-1.73
-2.26
-2.65
-2.95
-3.25
-3.69
-4.35
-5.28
-6.49
-7.89
-9.36
-10.66
-11.51
-11.63
-10.81
-8.95
-6.17
-2.77
0.87
4.34
7.30
9.58
11.13
11.99
12.24
11.98
11.28
10.20
8.85
7.38
5.98
4.84
4.12
3.78
3.70
3.64
3.39
2.87
2.12
1.28
0.49
-0.16
-0.70
-1.18
-1.66
-2.20
-2.88
-3.78
-4.97
-6.42
-7.96
-9.24
-9.89
-9.56
-8.13
-5.71
-2.59
0.81
4.11
6.98
9.21
10.69
11.40
11.42
10.93
10.12
9.20
8.31
7.49
6.72
5.98
5.29
4.72
4.38
4.31
4.51
4.88
5.26
5.53
5.58
5.36
4.87
4.14
3.24
2.27
1.39
0.73
0.32
0.11
-0.10
-0.53
-1.32
-2.47
-3.82
-5.12
-6.18
-6.88
-7.26
-7.46
-7.66
-8.04
-8.73
-9.77
-11.07
-12.39
-13.35
-13.52
-12.61
-10.49
-7.33
-3.54
0.38
3.91
6.71
8.58
9.56
9.79
9.49
8.85
8.03
7.12
6.21
5.35
4.58
3.95
3.47
3.12
2.85
2.61
2.34
2.02
1.62
1.19
0.75
0.31
-0.18
-0.81
-1.64
-2.68
-3.83
-4.89
-5.68
-6.09
-6.17
-6.11
-6.18
-6.60
-7.47
-8.73
-10.19
-11.58
-12.62
-13.08
-12.78
-11.63
-9.67
-7.03
-4.00
-0.88
2.01
4.48
6.41
7.84
8.82
9.42
9.72
9.77
9.60
9.25
8.74
8.10
7.34
6.54
5.81
5.29
5.06
5.10
5.29
5.48
5.52
5.31
4.84
4.14
3.26
2.25
1.20
0.22
-0.59
-1.17
-1.54
-1.83
-2.21
-2.86
-3.86
-5.18
-6.62
-7.90
-8.67
-8.62
-7.61
-5.66
-3.02
-0.06
2.82
5.30
7.20
8.45
9.09
9.17
8.79
8.09
7.21
6.32
5.52
4.85
4.30
3.81
3.36
2.94
2.58
2.29
2.08
1.92
1.79
1.71
1.65
1.60
1.47
1.15
0.56
-0.30
-1.28
-2.20
-2.87
-3.27
-3.52
-3.84
-4.44
-5.37
-6.52
-7.63
-8.41
-8.62
-8.13
-6.91
-5.03
-2.62
0.11
2.89
5.41
7.37
8.60
9.04
8.79
8.06
7.05
5.95
4.87
3.86
2.95
2.17
1.58
1.19
1.02
1.02
1.07
1.09
0.99
0.78
0.50
0.22
-0.02
-0.23
-0.47
-0.77
-1.18
-1.69
-2.26
-2.86
-3.45
-3.98
-4.32
-4.34
-3.87
-2.86
-1.36
0.42
2.21
3.69
4.68
5.14
5.20
5.07
4.98
5.14
5.62
6.42
7.43
8.49
9.38
9.95
10.10
9.84
9.26
8.45
7.46
6.34
5.11
3.80
2.50
1.28
0.19
-0.80
-1.80
-2.91
-4.16
-5.52
-6.87
-8.10
-9.15
-10.05
-10.81
-11.36
-11.55
-11.13
-9.91
-7.82
-5.01
-1.78
1.46
4.33
6.56
8.03
8.72
8.76
8.34
7.67
6.96
6.35
5.90
5.61
5.46
5.43
5.52
5.65
5.72
5.56
5.04
4.16
3.09
2.14
1.56
1.42
1.56
1.61
1.23
0.26
-1.23
-2.96
-4.58
-5.81
-6.47
-6.49
-5.83
-4.47
-2.48
-0.05
2.47
4.68
6.17
6.74
6.36
5.17
3.38
1.13
-1.52
-4.53
-7.81
-11.23
-14.53
-17.50
-19.96
-21.86
-23.30
-24.45
-25.51
-26.69
-28.07
-29.70
-31.53
-33.45
-35.28
-36.87
-38.10
-38.98
-39.58
-40.04
-40.42
-40.63
-40.44
-39.47
-37.35
-33.82
-28.90
-22.87
-16.19
-9.41
-3.02
2.62
7.24
10.71
13.01
14.29
14.80
14.90
14.93
15.13
15.57
16.13
16.63
16.91
16.91
16.68
16.33
15.96
15.58
15.10
14.39
13.28
11.68
9.54
6.88
3.82
0.57
-2.57
-5.17
-6.77
-7.00
-5.71
-3.01
0.72
4.95
9.17
13.04
16.37
19.16
21.45
23.31
24.76
25.80
26.45
26.74
26.72
26.45
25.95
25.24
24.28
23.10
21.72
20.20
18.61
16.97
15.28
13.50
11.63
9.68
7.74
5.87
4.12
2.48
0.89
-0.70
-2.28
-3.75
-4.91
-5.53
-5.43
-4.57
-3.07
-1.25
0.53
1.94
2.78
3.02
2.73
2.04
1.12
0.12
-0.80
-1.50
-1.92
-2.07
-2.13
-2.28
-2.67
-3.29
-4.01
-4.62
-4.96
-5.05
-5.03
-5.14
-5.54
-6.21
-6.96
-7.47
-7.43
-6.69
-5.28
-3.42
-1.42
0.43
1.97
3.11
3.89
4.34
4.50
4.40
4.12
3.81
3.59
3.58
3.76
4.01
4.17
4.13
3.88
3.51
3.15
2.90
2.78
2.71
2.56
2.19
1.53
0.50
-0.87
-2.50
-4.25
-5.87
-7.07
-7.58
-7.27
-6.15
-4.44
-2.46
-0.55
1.01
2.06
2.55
2.56
2.20
1.65
1.07
0.60
0.30
0.11
-0.09
-0.40
-0.87
-1.45
-2.01
-2.43
-2.68
-2.76
-2.75
-2.73
-2.77
-2.95
-3.31
-3.90
-4.66
-5.42
-5.93
-5.88
-5.06
-3.41
-1.11
1.51
4.07
6.20
7.67
8.46
8.67
8.54
8.33
8.17
8.08
7.95
7.59
6.90
5.94
4.88
3.96
3.32
2.99
2.86
2.80
2.73
2.65
2.58
2.47
2.13
1.38
0.12
-1.50
-3.09
-4.19
-4.44
-3.76
-2.41
-0.85
0.42
1.06
0.97
0.24
-0.88
-2.08
-3.05
-3.56
-3.45
-2.71
-1.44
0.17
1.90
3.50
4.79
5.65
6.01
5.91
5.46
4.88
4.42
4.31
4.70
5.62
6.91
8.32
9.56
10.36
10.60
10.33
9.77
9.24
8.98
9.15
9.70
10.52
11.46
12.46
13.50
14.60
15.74
16.81
17.68
18.26
18.50
18.44
18.15
17.69
17.07
16.33
15.54
14.83
14.34
14.17
14.28
14.42
14.11
12.68
9.48
4.09
-3.44
-12.54
-22.15
-31.05
-38.15
-42.74
-44.67
-44.25
-42.17
-39.20
-36.12
-33.51
-31.74
-30.92
-30.88
-31.29
-31.67
-31.61
-30.89
-29.52
-27.77
-26.02
-24.62
-23.74
-23.32
-23.05
-22.46
-20.95
-18.01
-13.36
-7.12
0.06
7.04
12.49
15.22
14.65
11.01
5.33
-0.94
-6.33
-9.80
-10.97
-10.01
-7.45
-3.83
0.47
5.28
10.62
16.46
22.70
29.05
35.02
39.94
43.04
43.63
41.30
36.10
28.48
19.28
9.50
0.18
-7.72
-13.36
-16.22
-16.18
-13.70
-9.66
-5.17
-1.17
1.74
3.42
4.05
3.92
3.40
2.88
2.89
3.90
6.11
9.21
12.30
14.20
13.95
11.24
6.57
1.06
-4.15
-8.32
-11.38
-13.78
-16.08
-18.57
-21.04
-22.94
-23.61
-22.75
-20.52
-17.51
-14.43
-11.69
-9.24
-6.56
-3.06
1.50
6.69
11.45
14.50
14.86
12.35
7.62
1.83
-3.78
-8.39
-11.62
-13.43
-13.84
-12.88
-10.57
-7.21
-3.43
-0.15
1.68
1.47
-0.88
-4.90
-9.80
-14.76
-19.09
-22.42
-24.64
-25.83
-26.23
-26.08
-25.54
-24.59
-23.02
-20.56
-17.05
-12.53
-7.37
-2.09
2.73
6.67
9.45
10.96
11.17
10.10
7.92
4.93
1.61
-1.59
-4.33
-6.58
-8.56
-10.59
-12.94
-15.60
-18.37
-20.89
-22.80
-23.88
-24.08
-23.54
-22.47
-21.12
-19.69
-18.24
-16.72
-14.92
-12.62
-9.67
-6.08
-2.05
2.11
6.03
9.44
12.18
14.18
15.45
15.98
15.76
14.80
13.23
11.26
9.18
7.27
5.71
4.51
3.51
2.51
1.32
-0.09
-1.64
-3.18
-4.59
-5.80
-6.84
-7.69
-8.30
-8.49
-8.07
-6.89
-4.94
-2.39
0.47
3.35
5.97
8.16
9.81
10.84
11.20
10.88
9.98
8.75
7.53
6.65
6.28
6.39
6.72
6.97
6.86
6.28
5.24
3.86
2.26
0.54
-1.24
-3.00
-4.59
-5.78
-6.30
-5.94
-4.62
-2.48
0.17
2.89
5.29
7.13
8.39
9.18
9.66
9.94
10.01
9.80
9.23
8.27
7.01
5.61
4.30
3.29
2.71
2.56
2.72
3.00
3.24
3.34
3.31
3.23
3.21
3.36
3.79
4.56
5.71
7.14
8.70
10.16
11.33
12.06
12.38
12.41
12.30
12.18
12.09
11.97
11.72
11.24
10.43
9.32
7.95
6.47
4.97
3.54
2.19
0.93
-0.24
-1.26
-2.08
-2.75
-3.36
-4.07
-4.92
-5.77
-6.33
-6.22
-5.18
-3.23
-0.65
2.11
4.58
6.49
7.75
8.45
8.73
8.70
8.39
7.76
6.80
5.55
4.13
2.75
1.58
0.76
0.30
0.08
-0.08
-0.34
-0.80
-1.46
-2.25
-3.10
-3.92
-4.59
-4.96
-4.80
-3.94
-2.32
-0.12
2.32
4.53
6.17
7.13
7.55
7.67
7.69
7.62
7.30
6.50
5.10
3.16
0.90
-1.39
-3.51
-5.36
-6.95
-8.33
-9.51
-10.53
-11.40
-12.18
-12.94
-13.64
-14.15
-14.21
-13.50
-11.80
-9.02
-5.30
-0.94
3.69
8.18
12.23
15.61
18.23
20.06
21.15
21.56
21.42
20.84
19.98
18.93
17.77
16.53
15.19
13.73
12.14
10.50
8.92
7.52
6.38
5.45
4.58
3.59
2.29
0.64
-1.21
-2.96
-4.21
-4.64
-4.11
-2.77
-0.96
0.89
2.42
3.44
3.94
3.99
3.60
2.72
1.22
-0.95
-3.71
-6.78
-9.70
-11.98
-13.22
-13.24
-12.14
-10.33
-8.43
-7.17
-7.12
-8.55
-11.19
-14.34
-16.99
-18.18
-17.24
-14.00
-8.81
-2.42
4.16
9.97
14.26
16.71
17.44
16.90
15.68
14.25
12.80
11.26
9.43
7.17
4.57
1.91
-0.47
-2.33
-3.62
-4.46
-5.07
-5.62
-6.18
-6.75
-7.24
-7.60
-7.79
-7.81
-7.63
-7.17
-6.32
-4.97
-3.10
-0.87
1.44
3.46
4.88
5.57
5.59
5.14
4.45
3.67
2.81
1.84
0.71
-0.51
-1.74
-2.87
-3.89
-4.84
-5.78
-6.71
-7.56
-8.22
-8.57
-8.55
-8.10
-7.20
-5.79
-3.83
-1.39
1.34
4.05
6.42
8.21
9.35
9.93
10.10
9.96
9.52
8.68
7.38
5.65
3.67
1.75
0.16
-0.96
-1.63
-2.03
-2.34
-2.73
-3.29
-4.02
-4.93
-5.94
-6.94
-7.71
-7.97
-7.47
-6.08
-3.92
-1.27
1.44
3.81
5.61
6.77
7.42
7.65
7.55
7.05
6.07
4.61
2.80
0.95
-0.60
-1.62
-2.07
-2.15
-2.11
-2.21
-2.56
-3.12
-3.83
-4.61
-5.38
-6.03
-6.35
-6.08
-4.99
-2.98
-0.19
3.03
6.20
8.88
10.81
11.91
12.32
12.19
11.67
10.81
9.68
8.38
7.11
6.12
5.62
5.66
6.06
6.54
6.78
6.60
5.99
5.11
4.15
3.33
2.84
2.86
3.57
5.07
7.34
10.20
13.36
16.50
19.30
21.55
23.09
23.83
23.73
22.87
21.42
19.66
17.84
16.07
14.26
12.17
9.57
6.42
2.84
-0.88
-4.50
-7.95
-11.29
-14.66
-18.12
-21.57
-24.75
-27.33
-29.04
-29.74
-29.41
-28.11
-25.93
-22.95
-19.25
-14.94
-10.17
-5.15
-0.16
4.53
8.66
12.06
14.63
16.37
17.38
17.83
17.88
17.72
17.43
17.10
16.76
16.48
16.30
16.22
16.14
15.95
15.57
15.10
14.76
14.82
15.47
16.68
18.19
19.70
20.92
21.68
21.92
21.51
20.26
17.94
14.39
9.68
4.03
-2.17
-8.57
-14.91
-21.03
-26.74
-31.77
-35.73
-38.20
-38.86
-37.62
-34.72
-30.55
-25.57
-20.07
-14.13
-7.70
-0.85
6.12
12.58
17.75
20.97
21.92
20.75
17.92
14.05
9.69
5.22
0.91
-3.08
-6.62
-9.62
-12.07
-14.05
-15.67
-17.08
-18.39
-19.77
-21.33
-23.16
-25.23
-27.40
-29.38
-30.82
-31.43
-31.05
-29.70
-27.60
-25.06
-22.41
-19.96
-17.87
-16.23
-15.05
-14.30
-13.89
-13.78
-13.87
-14.11
-14.46
-14.92
-15.50
-16.20
-16.97
-17.61
-17.91
-17.63
-16.62
-14.94
-12.84
-10.68
-8.88
-7.71
-7.24
-7.25
-7.35
-7.09
-6.15
-4.45
-2.12
0.49
3.04
5.19
6.61
7.02
6.19
4.09
1.00
-2.45
-5.39
-7.02
-6.97
-5.43
-3.05
-0.65
1.18
2.34
3.13
4.00
5.22
6.71
8.06
8.80
8.64
7.60
5.87
3.68
1.08
-2.09
-6.01
-10.72
-15.96
-21.18
-25.69
-28.86
-30.28
-29.85
-27.74
-24.27
-19.84
-14.82
-9.56
-4.33
0.67
5.31
9.51
13.26
16.61
19.56
22.07
24.05
25.40
26.11
26.37
26.48
26.79
27.61
29.08
31.23
34.00
37.31
40.99
44.77
48.26
51.03
52.76
53.31
52.80
51.46
49.56
47.27
44.71
41.92
39.01
36.05
33.09
30.04
26.70
22.86
18.34
13.10
7.35
1.43
-4.19
-9.14
-13.26
-16.65
-19.58
-22.32
-24.93
-27.18
-28.64
-28.94
-27.96
-25.90
-23.22
-20.41
-17.78
-15.42
-13.26
-11.22
-9.23
-7.36
-5.70
-4.33
-3.35
-2.82
-2.78
-3.28
-4.34
-6.00
-8.23
-10.97
-14.10
-17.44
-20.78
-23.99
-26.96
-29.69
-32.18
-34.42
-36.32
-37.68
-38.20
-37.54
-35.40
-31.62
-26.32
-19.91
-13.08
-6.60
-1.17
2.80
5.21
6.16
5.83
4.39
2.00
-1.08
-4.37
-7.23
-9.08
-9.57
-8.83
-7.40
-6.04
-5.40
-5.82
-7.26
-9.33
-11.48
-13.12
-13.76
-13.09
-10.99
-7.61
-3.29
1.53
6.43
11.16
15.64
19.89
23.94
27.71
30.95
33.32
34.45
34.01
31.90
28.24
23.45
18.12
12.78
7.71
2.83
-2.22
-7.90
-14.50
-22.01
-30.07
-38.07
-45.28
-50.94
-54.38
-55.13
-53.01
-48.19
-41.18
-32.67
-23.37
-13.96
-4.96
3.21
10.19
15.71
19.65
22.08
23.32
23.79
23.92
23.98
24.03
23.91
23.42
22.47
21.22
20.06
19.51
19.92
21.37
23.58
25.97
27.94
29.02
28.99
27.88
25.89
23.30
20.43
17.61
15.11
13.12
11.70
10.76
10.23
10.04
10.19
10.74
11.64
12.71
13.66
14.17
14.06
13.36
12.29
11.11
9.93
8.62
6.84
4.24
0.67
-3.67
-8.16
-11.98
-14.40
-15.01
-13.91
-11.59
-8.76
-6.11
-4.08
-2.90
-2.63
-3.28
-4.87
-7.37
-10.66
-14.43
-18.22
-21.56
-24.09
-25.72
-26.55
-26.77
-26.50
-25.64
-23.95
-21.13
-17.05
-11.84
-5.87
0.31
6.22
11.50
15.94
19.43
21.82
22.91
22.40
20.00
15.53
9.00
0.67
-8.87
-18.86
-28.38
-36.52
-42.56
-46.07
-47.00
-45.70
-42.77
-38.83
-34.36
-29.53
-24.28
-18.50
-12.25
-5.82
0.34
5.83
10.44
14.26
17.46
20.14
22.17
23.22
22.96
21.28
18.40
14.80
11.08
7.71
4.97
2.91
1.46
0.45
-0.23
-0.68
-0.93
-0.99
-0.85
-0.50
0.06
0.82
1.85
3.26
5.21
7.79
10.84
13.98
16.68
18.51
19.40
19.63
19.71
20.03
20.67
21.37
21.77
21.67
21.25
20.89
20.97
21.59
22.52
23.34
23.72
23.66
23.38
23.19
23.14
22.91
21.97
19.92
16.83
13.42
10.64
9.20
9.04
9.30
8.79
6.70
3.13
-0.93
-4.23
-6.09
-6.93
-8.13
-11.23
-17.00
-24.97
-33.59
-41.06
-46.14
-48.64
-49.15
-48.52
-47.25
-45.27
-42.20
-37.83
-32.46
-26.93
-22.21
-18.94
-17.16
-16.35
-15.77
-14.87
-13.49
-11.83
-10.22
-8.91
-7.88
-6.92
-5.75
-4.20
-2.29
-0.20
1.80
3.45
4.58
5.22
5.59
6.12
7.39
9.86
13.70
18.62
23.95
28.82
32.49
34.61
35.27
34.81
33.64
32.00
29.96
27.50
24.64
21.47
18.16
14.83
11.55
8.34
5.24
2.34
-0.21
-2.26
-3.71
-4.60
-5.05
-5.20
-5.20
-5.14
-5.13
-5.23
-5.53
-6.11
-7.00
-8.12
-9.22
-9.97
-10.04
-9.24
-7.60
-5.41
-3.08
-1.01
0.55
1.57
2.17
2.49
2.56
2.35
1.79
0.89
-0.28
-1.58
-2.71
-3.51
-4.04
-4.58
-5.43
-6.77
-8.61
-10.73
-12.77
-14.09
-14.26
-13.26
-11.47
-9.36
-7.29
-5.42
-3.72
-1.94
0.67
4.65
10.13
16.83
24.31
32.13
39.94
47.28
53.73
59.43
64.32
68.01
69.96
69.81
67.60
63.74
58.75
49.58
35.35
17.76
0.36
-13.90
-24.12
-31.05
-35.74
-39.60
-43.21
-45.99
-47.38
-47.31
-46.37
-45.05
-43.80
-42.85
-42.20
-41.65
-40.49
-38.35
-35.28
-31.76
-28.29
-25.15
-22.38
-19.91
-17.62
-15.13
-12.27
-9.10
-5.91
-2.94
-0.36
1.85
3.76
5.54
7.37
9.23
10.82
11.73
11.67
10.61
8.83
6.78
4.91
3.47
2.50
1.82
1.20
0.55
-0.06
-0.46
-0.55
-0.34
0.04
0.54
1.25
2.52
4.74
8.17
12.75
18.13
23.77
29.21
34.16
38.47
41.92
44.14
44.59
42.87
38.91
33.13
26.38
19.64
13.72
9.10
5.85
3.83
2.82
2.66
3.28
4.56
6.32
8.21
9.82
10.78
10.90
10.26
9.18
8.07
7.26
6.85
6.73
6.65
6.40
5.90
5.24
4.55
3.93
3.36
2.75
2.01
1.15
0.27
-0.40
-0.70
-0.55
-0.03
0.64
1.23
1.52
1.42
0.92
0.07
-1.06
-2.37
-3.74
-5.07
-6.24
-7.18
-7.84
-8.24
-8.36
-8.16
-7.59
-6.56
-5.08
-3.29
-1.45
0.09
1.02
1.09
0.24
-1.46
-3.81
-6.54
-9.43
-12.33
-15.22
-18.14
-21.18
-24.30
-27.34
-30.01
-31.95
-32.88
-32.73
-31.66
-30.00
-28.14
-26.43
-25.11
-24.32
-24.13
-24.66
-25.97
-28.13
-31.03
-34.40
-37.86
-40.93
-43.20
-44.34
-44.10
-42.27
-38.67
-33.23
-26.13
-17.85
-9.19
-1.08
5.70
10.67
13.77
15.17
15.07
13.51
10.36
5.51
-0.89
-8.21
-15.46
-21.52
-25.50
-27.04
-26.36
-24.04
-20.75
-16.94
-12.75
-8.04
-2.64
3.62
10.74
18.60
26.93
35.31
43.14
49.67
54.16
55.97
54.82
50.81
44.46
36.60
28.19
20.11
13.04
7.29
2.86
-0.49
-3.09
-5.24
-7.06
-8.54
-9.56
-9.96
-9.60
-8.44
-6.49
-3.87
-0.75
2.69
6.28
9.79
12.83
14.86
15.38
14.19
11.60
8.44
5.79
4.50
4.81
6.30
8.12
9.45
9.88
9.48
8.62
7.63
6.67
5.63
4.34
2.73
0.93
-0.87
-2.46
-3.78
-4.90
-6.05
-7.43
-9.17
-11.29
-13.67
-16.16
-18.63
-21.04
-23.44
-25.92
-28.49
-31.05
-33.33
-34.95
-35.57
-34.89
-32.82
-29.48
-25.17
-20.31
-15.38
-10.82
-6.96
-3.98
-1.91
-0.65
0.01
0.30
0.46
0.65
0.98
1.47
2.07
2.68
3.22
3.67
4.04
4.35
4.58
4.65
4.44
3.87
2.96
1.91
1.02
0.61
0.93
2.06
3.93
6.30
8.88
11.40
13.61
15.33
16.49
17.05
17.07
16.64
15.88
14.90
13.78
12.59
11.35
10.09
8.81
7.52
6.25
5.02
3.81
2.60
1.37
0.09
-1.20
-2.48
-3.72
-4.97
-6.32
-7.86
-9.51
-11.05
-12.11
-12.38
-11.74
-10.34
-8.56
-6.86
-5.56
-4.81
-4.56
-4.70
-5.13
-5.79
-6.61
-7.47
-8.16
-8.48
-8.30
-7.66
-6.71
-5.63
-4.56
-3.49
-2.33
-0.96
0.67
2.50
4.31
5.81
6.74
6.94
6.49
5.65
4.83
4.42
4.70
5.73
7.35
9.35
11.47
13.56
15.49
17.14
18.30
18.78
18.43
17.26
15.52
13.57
11.79
10.41
9.41
8.60
7.75
6.66
5.36
3.96
2.67
1.60
0.77
0.09
-0.58
-1.37
-2.34
-3.44
-4.53
-5.36
-5.66
-5.21
-3.95
-1.97
0.48
3.10
5.62
7.85
9.68
11.05
11.93
12.32
12.26
11.85
11.20
10.40
9.50
8.49
7.35
6.09
4.77
3.53
2.54
1.92
1.68
1.70
1.74
1.55
0.91
-0.21
-1.67
-3.18
-4.33
-4.78
-4.27
-2.77
-0.46
2.28
4.99
7.24
8.77
9.52
9.65
9.37
8.89
8.29
7.57
6.68
5.64
4.54
3.49
2.57
1.75
0.93
0.03
-0.98
-2.03
-2.98
-3.74
-4.30
-4.80
-5.36
-6.14
-7.15
-8.28
-9.29
-9.92
-9.93
-9.21
-7.85
-6.09
-4.25
-2.61
-1.37
-0.59
-0.24
-0.26
-0.57
-1.10
-1.70
-2.18
-2.36
-2.13
-1.53
-0.73
0.04
0.65
1.05
1.32
1.52
1.65
1.61
1.28
0.63
-0.27
-1.20
-1.93
-2.28
-2.19
-1.67
-0.78
0.42
1.85
3.42
4.95
6.27
7.24
7.79
7.97
7.87
7.53
6.96
6.12
5.01
3.67
2.23
0.84
-0.44
-1.59
-2.69
-3.81
-4.93
-5.99
-6.85
-7.44
-7.80
-8.03
-8.28
-8.57
-8.78
-8.66
-7.98
-6.60
-4.59
-2.18
0.33
2.68
4.72
6.39
7.70
8.65
9.25
9.52
9.44
9.05
8.36
7.38
6.16
4.77
3.31
1.86
0.52
-0.66
-1.66
-2.46
-3.10
-3.64
-4.18
-4.85
-5.69
-6.64
-7.49
-7.94
-7.73
-6.69
-4.84
-2.42
0.27
2.86
5.06
6.67
7.62
7.90
7.58
6.76
5.60
4.28
2.96
1.77
0.79
0.02
-0.56
-0.98
-1.24
-1.37
-1.42
-1.47
-1.65
-2.03
-2.68
-3.58
-4.68
-5.88
-7.05
-7.96
-8.36
-8.01
-6.84
-4.96
-2.65
-0.31
1.74
3.28
4.29
4.78
4.80
4.38
3.54
2.36
0.96
-0.49
-1.87
-3.10
-4.21
-5.22
-6.13
-6.86
-7.34
-7.55
-7.57
-7.57
-7.72
-8.12
-8.69
-9.23
-9.45
-9.08
-7.93
-5.99
-3.40
-0.44
2.55
5.22
7.32
8.74
9.49
9.66
9.39
8.78
7.92
6.88
5.75
4.63
3.59
2.67
1.84
1.08
0.37
-0.29
-0.92
-1.53
-2.16
-2.88
-3.73
-4.72
-5.77
-6.74
-7.41
-7.53
-6.90
-5.47
-3.35
-0.83
1.69
3.79
5.20
5.81
5.69
5.03
4.05
2.95
1.86
0.86
0.00
-0.69
-1.24
-1.65
-1.96
-2.19
-2.36
-2.46
-2.49
-2.45
-2.38
-2.35
-2.53
-3.10
-4.16
-5.67
-7.37
-8.82
-9.56
-9.29
-7.96
-5.80
-3.21
-0.62
1.65
3.44
4.68
5.42
5.71
5.60
5.15
4.43
3.54
2.58
1.64
0.79
0.09
-0.41
-0.69
-0.75
-0.64
-0.43
-0.26
-0.27
-0.58
-1.28
-2.34
-3.63
-4.95
-6.04
-6.68
-6.69
-6.02
-4.68
-2.80
-0.56
1.79
4.01
5.82
7.04
7.59
7.53
7.01
6.23
5.36
4.45
3.49
2.43
1.28
0.11
-0.95
-1.80
-2.43
-2.88
-3.23
-3.55
-3.88
-4.26
-4.75
-5.37
-6.08
-6.72
-7.01
-6.67
-5.58
-3.79
-1.59
0.67
2.65
4.14
5.07
5.47
5.44
5.08
4.49
3.78
3.02
2.26
1.51
0.80
0.15
-0.39
-0.75
-0.87
-0.75
-0.43
-0.07
0.16
0.04
-0.56
-1.62
-2.95
-4.18
-4.94
-4.94
-4.09
-2.51
-0.44
1.89
4.25
6.52
8.55
10.17
11.22
11.60
11.28
10.40
9.14
7.66
6.09
4.48
2.89
1.38
0.08
-0.91
-1.57
-1.99
-2.34
-2.81
-3.55
-4.62
-5.95
-7.45
-8.97
-10.34
-11.40
-11.99
-12.01
-11.46
-10.45
-9.13
-7.72
-6.35
-5.13
-4.08
-3.16
-2.26
-1.27
-0.08
1.34
2.85
4.20
5.12
5.44
5.18
4.56
3.85
3.32
3.03
2.94
2.88
2.74
2.43
1.90
1.12
0.04
-1.37
-3.04
-4.73
-6.11
-6.77
-6.44
-5.05
-2.79
-0.08
2.63
4.95
6.69
7.85
8.54
8.89
8.97
8.75
8.18
7.25
6.06
4.84
3.82
3.17
2.91
2.93
3.01
2.98
2.79
2.45
2.01
1.48
0.76
-0.27
-1.72
-3.51
-5.36
-6.79
-7.33
-6.64
-4.63
-1.51
2.36
6.58
10.89
15.13
19.28
23.22
26.72
29.40
30.82
30.62
28.68
25.17
20.48
15.16
9.78
4.80
0.57
-2.77
-5.19
-6.78
-7.67
-8.03
-8.03
-7.86
-7.73
-7.80
-8.17
-8.89
-9.89
-11.04
-12.17
-13.10
-13.63
-13.62
-12.99
-11.75
-9.98
-7.80
-5.36
-2.80
-0.28
1.99
3.78
4.90
5.24
4.87
3.99
2.85
1.70
0.68
-0.12
-0.67
-0.98
-1.10
-1.13
-1.21
-1.42
-1.81
-2.30
-2.76
-3.10
-3.33
-3.55
-3.91
-4.52
-5.43
-6.56
-7.74
-8.76
-9.41
-9.51
-8.94
-7.66
-5.74
-3.35
-0.72
1.88
4.17
5.91
6.94
7.20
6.79
5.90
4.77
3.60
2.50
1.49
0.53
-0.36
-1.15
-1.76
-2.15
-2.38
-2.53
-2.72
-3.01
-3.38
-3.77
-4.17
-4.63
-5.22
-5.98
-6.84
-7.57
-7.89
-7.56
-6.47
-4.73
-2.53
-0.12
2.26
4.47
6.35
7.80
8.71
9.02
8.76
8.06
7.09
6.06
5.12
4.33
3.67
3.10
2.58
2.08
1.59
1.12
0.65
0.20
-0.24
-0.66
-1.11
-1.69
-2.55
-3.80
-5.38
-7.02
-8.30
-8.79
-8.20
-6.58
-4.22
-1.55
1.05
3.35
5.29
6.90
8.16
9.03
9.43
9.29
8.67
7.72
6.64
5.58
4.64
3.81
3.01
2.19
1.34
0.52
-0.18
-0.66
-0.89
-0.93
-0.92
-1.04
-1.41
-2.11
-3.12
-4.34
-5.63
-6.78
-7.56
-7.73
-7.15
-5.81
-3.85
-1.57
0.69
2.67
4.24
5.38
6.17
6.63
6.73
6.45
5.80
4.89
3.92
3.07
2.44
2.02
1.70
1.38
0.99
0.58
0.21
-0.09
-0.32
-0.55
-0.82
-1.14
-1.46
-1.74
-1.99
-2.35
-2.95
-3.88
-5.08
-6.25
-7.00
-6.98
-6.02
-4.24
-1.95
0.44
2.60
4.30
5.50
6.21
6.47
6.33
5.84
5.06
4.12
3.13
2.23
1.49
0.92
0.50
0.18
-0.11
-0.39
-0.67
-0.94
-1.22
-1.53
-1.87
-2.24
-2.60
-2.93
-3.25
-3.63
-4.18
-4.94
-5.82
-6.56
-6.85
-6.45
-5.28
-3.50
-1.42
0.63
2.40
3.82
4.96
5.86
6.49
6.73
6.40
5.42
3.91
2.17
0.61
-0.49
-1.00
-1.05
-0.89
-0.78
-0.86
-1.16
-1.58
-2.01
-2.38
-2.67
-2.91
-3.16
-3.48
-3.92
-4.52
-5.24
-6.00
-6.61
-6.88
-6.64
-5.81
-4.43
-2.66
-0.70
1.22
2.93
4.30
5.26
5.75
5.76
5.33
4.54
3.54
2.47
1.49
0.68
0.07
-0.39
-0.75
-1.07
-1.34
-1.58
-1.77
-1.94
-2.13
-2.37
-2.70
-3.11
-3.59
-4.14
-4.78
-5.48
-6.14
-6.59
-6.59
-5.95
-4.61
-2.68
-0.44
1.74
3.58
4.93
5.75
6.07
5.97
5.49
4.70
3.66
2.49
1.33
0.34
-0.41
-0.87
-1.12
-1.23
-1.33
-1.49
-1.73
-2.03
-2.34
-2.57
-2.69
-2.76
-2.94
-3.40
-4.24
-5.42
-6.71
-7.74
-8.13
-7.64
-6.25
-4.14
-1.69
0.74
2.84
4.43
5.49
6.02
6.09
5.73
4.97
3.93
2.76
1.64
0.73
0.05
-0.49
-1.04
-1.73
-2.58
-3.50
-4.29
-4.81
-5.02
-4.99
-4.89
-4.95
-5.30
-5.99
-6.95
-8.01
-8.92
-9.45
-9.43
-8.81
-7.61
-5.99
-4.12
-2.23
-0.50
0.94
1.99
2.59
2.70
2.34
1.60
0.65
-0.26
-0.87
-1.02
-0.71
-0.04
0.79
1.59
2.26
2.81
3.27
3.73
4.21
4.70
5.12
5.37
5.31
4.84
3.92
2.67
1.32
0.20
-0.34
-0.03
1.24
3.38
6.13
9.11
11.91
14.20
15.77
16.56
16.58
15.92
14.69
13.00
11.00
8.85
6.73
4.83
3.31
2.25
1.67
1.50
1.58
1.73
1.78
1.66
1.36
0.96
0.48
-0.11
-0.83
-1.65
-2.38
-2.68
-2.19
-0.70
1.71
4.71
7.82
10.67
13.11
15.19
17.05
18.72
20.10
20.98
21.13
20.49
19.15
17.38
15.53
13.91
12.76
12.18
12.18
12.65
13.43
14.31
15.10
15.67
15.95
15.96
15.80
15.53
15.15
14.62
13.91
13.06
12.26
11.81
11.94
12.76
14.11
15.59
16.74
17.19
16.77
15.49
13.47
10.84
7.72
4.24
0.62
-2.85
-5.90
-8.33
-10.14
-11.42
-12.35
-13.07
-13.66
-14.14
-14.55
-14.94
-15.38
-15.92
-16.57
-17.26
-17.86
-18.29
-18.47
-18.39
-18.08
-17.62
-17.05
-16.45
-15.88
-15.38
-14.99
-14.68
-14.40
-14.12
-13.78
-13.42
-13.06
-12.75
-12.51
-12.29
