1478928485.00
64.000000
-0.00
-0.00
-0.00
-0.00
-0.00
-0.00
-0.00
-0.00
-0.00
-0.00
0.00
0.01
0.01
-0.00
-0.03
-0.05
-0.05
0.00
0.13
0.36
0.66
1.01
1.37
1.72
2.06
2.40
2.79
3.24
3.80
4.42
5.06
5.66
6.20
6.68
7.15
7.68
8.31
9.14
10.09
11.04
11.88
12.56
13.14
13.76
14.65
15.96
17.91
20.32
22.90
25.38
27.58
29.57
31.68
34.32
37.81
42.54
48.15
54.10
59.83
64.97
69.58
74.14
79.34
85.71
93.76
103.00
112.62
121.73
129.77
136.75
143.30
150.75
157.77
166.64
177.95
191.79
206.97
220.57
228.25
225.36
208.53
176.87
132.76
80.05
23.07
-34.94
-92.44
-149.16
-205.23
-260.37
-313.74
-363.87
-409.83
-450.91
-486.50
-515.74
-537.23
-549.22
-549.96
-538.37
-514.21
-478.67
-433.88
-382.45
-327.02
-269.84
-212.63
-156.66
-102.95
-52.37
-5.90
35.58
71.43
101.35
125.50
144.38
158.69
169.15
176.37
180.75
182.57
182.07
179.50
175.23
169.66
163.20
156.18
148.83
141.29
133.63
125.88
118.11
110.40
102.84
95.48
88.38
81.54
74.93
68.58
62.49
56.68
51.21
46.10
41.36
36.95
32.82
28.93
25.25
21.79
18.60
15.73
13.24
11.11
9.25
7.56
5.92
4.26
2.62
1.11
-0.12
-0.96
-1.43
-1.69
-1.99
-2.58
-3.57
-4.87
-6.22
-7.29
-7.85
-7.88
-7.62
-7.51
-7.94
-9.10
-10.84
-12.76
-14.35
-15.25
-15.40
-15.06
-14.69
-14.75
-15.61
-17.50
-20.46
-24.11
-27.58
-29.41
-28.04
-22.42
-12.68
-0.41
11.82
21.45
26.92
28.28
26.94
24.86
23.54
23.57
24.64
26.08
27.34
28.22
28.79
29.08
28.95
28.08
26.22
23.36
19.86
16.37
13.49
11.60
10.66
10.36
10.20
9.84
9.19
8.46
8.00
8.08
8.75
9.80
10.92
11.82
12.47
12.97
13.49
14.08
14.53
14.51
13.70
12.01
9.60
6.79
3.95
1.04
-2.01
-5.37
-9.04
-12.89
-16.58
-19.72
-21.92
-22.92
-22.68
-21.28
-18.98
-16.18
-13.27
-10.62
-8.49
-6.97
-6.06
-5.72
-5.84
-6.31
-6.94
-7.52
-7.85
-7.79
-7.30
-6.43
-5.27
-3.87
-2.30
-0.57
1.24
2.99
4.50
5.59
6.13
6.08
5.48
4.47
3.18
1.72
0.15
-1.50
-3.19
-4.88
-6.48
-7.87
-8.93
-9.56
-9.80
-9.77
-9.72
-9.85
-10.31
-11.08
-12.11
-13.24
-14.28
-15.02
-15.22
-14.61
-13.01
-10.30
-6.39
-1.57
3.66
8.78
13.37
17.20
20.25
22.58
24.27
25.32
25.62
25.09
23.74
21.71
19.30
16.85
14.65
12.85
11.40
10.11
8.80
7.37
5.85
4.38
3.08
2.05
1.26
0.60
-0.12
-1.08
-2.40
-4.09
-6.07
-8.17
-10.25
-12.24
-14.21
-16.31
-18.67
-21.35
-24.27
-27.26
-30.12
-32.54
-34.14
-34.40
-32.85
-29.18
-23.46
-16.20
-8.23
-0.41
6.59
12.41
17.03
20.53
23.06
24.68
25.40
25.30
24.50
23.22
21.66
20.00
18.34
16.71
15.09
13.50
11.95
10.45
9.02
7.67
6.40
5.23
4.11
2.98
1.67
0.01
-2.17
-4.90
-8.00
-11.20
-14.20
-16.84
-19.24
-21.66
-24.44
-27.80
-31.78
-36.18
-40.62
-44.48
-47.02
-47.51
-45.34
-40.29
-32.63
-23.10
-12.74
-2.68
6.19
13.31
18.56
22.07
24.21
25.39
25.98
26.23
26.26
26.06
25.55
24.65
23.37
21.79
20.00
18.12
16.23
14.38
12.61
10.95
9.41
7.95
6.42
4.66
2.55
0.14
-2.35
-4.62
-6.49
-7.99
-9.42
-11.16
-13.53
-16.60
-20.13
-23.69
-26.72
-28.73
-29.34
-28.34
-25.73
-21.70
-16.64
-11.04
-5.39
-0.04
4.82
9.12
12.82
15.83
17.98
19.08
19.06
18.02
16.24
14.12
12.11
10.48
9.38
8.74
8.45
8.37
8.46
8.73
9.23
9.93
10.70
11.31
11.53
11.19
10.28
8.91
7.23
5.39
3.44
1.38
-0.81
-3.13
-5.60
-8.27
-11.24
-14.63
-18.39
-22.22
-25.56
-27.63
-27.78
-25.67
-21.43
-15.61
-8.92
-2.01
4.67
10.89
16.47
21.21
24.85
27.17
28.08
27.71
26.39
24.54
22.52
20.62
18.96
17.55
16.34
15.22
14.15
13.11
12.12
11.20
10.37
9.55
8.59
7.34
5.66
3.54
1.10
-1.45
-3.89
-6.10
-8.11
-10.04
-12.03
-14.23
-16.75
-19.62
-22.84
-26.28
-29.59
-32.18
-33.32
-32.33
-28.93
-23.33
-16.22
-8.54
-1.13
5.47
11.10
15.80
19.68
22.73
24.88
26.10
26.44
26.12
25.44
24.65
23.86
22.99
21.87
20.35
18.41
16.27
14.26
12.73
11.84
11.47
11.26
10.78
9.68
7.85
5.39
2.57
-0.37
-3.25
-5.93
-8.37
-10.52
-12.40
-14.13
-15.94
-18.09
-20.71
-23.71
-26.66
-28.99
-30.17
-29.92
-28.26
-25.49
-22.01
-18.23
-14.46
-10.97
-7.97
-5.70
-4.31
-3.94
-4.62
-6.27
-8.75
-11.80
-15.07
-18.17
-20.71
-22.41
-23.27
-23.55
-23.69
-24.13
-25.13
-26.72
-28.65
-30.61
-32.30
-33.62
-34.66
-35.66
-36.91
-38.60
-40.74
-43.09
-45.12
-46.15
-45.50
-42.69
-37.65
-30.64
-22.26
-13.22
-4.18
4.38
12.18
19.19
25.48
31.20
36.47
41.28
45.52
48.97
51.49
53.01
53.60
53.39
52.57
51.30
49.84
48.53
47.72
47.63
48.17
48.86
48.97
47.81
45.00
40.63
35.17
29.23
23.30
17.64
12.25
6.95
1.50
-4.33
-10.67
-17.49
-24.42
-30.75
-35.54
-37.86
-37.16
-33.52
-27.61
-20.48
-13.22
-6.59
-0.94
3.78
7.75
11.16
14.05
16.42
18.21
19.38
19.97
20.01
19.55
18.64
17.29
15.57
13.58
11.48
9.44
7.60
6.01
4.66
3.47
2.35
1.22
0.07
-1.12
-2.34
-3.58
-4.87
-6.33
-8.11
-10.44
-13.41
-16.87
-20.34
-23.03
-24.08
-22.89
-19.33
-13.79
-7.07
-0.07
6.45
12.04
16.54
20.02
22.57
24.32
25.31
25.57
25.10
23.98
22.36
20.46
18.51
16.69
15.03
13.48
11.93
10.29
8.56
6.80
5.09
3.48
1.89
0.20
-1.76
-4.08
-6.80
-9.91
-13.39
-17.19
-21.23
-25.21
-28.64
-30.87
-31.27
-29.47
-25.55
-19.99
-13.54
-6.95
-0.78
4.70
9.41
13.38
16.58
18.96
20.45
21.00
20.65
19.53
17.83
15.81
13.74
11.85
10.27
8.98
7.84
6.66
5.29
3.70
1.92
0.10
-1.69
-3.42
-5.17
-7.12
-9.40
-12.13
-15.34
-18.97
-22.81
-26.45
-29.34
-30.80
-30.30
-27.60
-22.92
-16.87
-10.26
-3.83
1.95
6.95
11.19
14.75
17.60
19.60
20.64
20.68
19.88
18.48
16.77
14.98
13.28
11.76
10.39
9.12
7.84
6.45
4.91
3.29
1.69
0.26
-0.98
-2.12
-3.31
-4.74
-6.55
-8.85
-11.71
-15.11
-18.85
-22.46
-25.20
-26.31
-25.22
-21.86
-16.70
-10.54
-4.30
1.36
6.12
9.96
12.97
15.23
16.69
17.27
16.95
15.85
14.25
12.46
10.72
9.14
7.68
6.26
4.78
3.23
1.69
0.26
-0.98
-2.06
-3.05
-4.06
-5.19
-6.52
-8.12
-10.08
-12.46
-15.31
-18.55
-21.91
-24.86
-26.70
-26.79
-24.74
-20.63
-15.00
-8.68
-2.47
3.04
7.62
11.32
14.27
16.55
18.12
18.86
18.69
17.69
16.09
14.24
12.49
11.02
9.82
8.71
7.48
5.94
4.15
2.29
0.60
-0.76
-1.82
-2.77
-3.93
-5.50
-7.59
-10.13
-13.04
-16.26
-19.72
-23.24
-26.43
-28.70
-29.37
-27.97
-24.46
-19.22
-12.98
-6.50
-0.35
5.17
9.93
13.87
16.87
18.80
19.64
19.55
18.80
17.71
16.46
15.14
13.72
12.17
10.55
8.95
7.46
6.07
4.69
3.22
1.64
0.04
-1.49
-2.92
-4.32
-5.93
-7.93
-10.47
-13.52
-16.98
-20.66
-24.28
-27.47
-29.71
-30.43
-29.19
-25.81
-20.56
-14.05
-7.06
-0.32
5.68
10.69
14.67
17.62
19.63
20.77
21.18
21.03
20.45
19.53
18.26
16.62
14.66
12.50
10.36
8.44
6.88
5.67
4.69
3.80
2.89
1.90
0.78
-0.56
-2.21
-4.25
-6.71
-9.53
-12.61
-15.89
-19.37
-23.03
-26.63
-29.69
-31.50
-31.34
-28.81
-24.03
-17.65
-10.62
-3.84
2.10
7.00
10.92
14.00
16.33
17.95
18.88
19.17
18.93
18.25
17.19
15.81
14.13
12.25
10.29
8.40
6.65
5.04
3.48
1.88
0.15
-1.72
-3.78
-6.05
-8.58
-11.44
-14.67
-18.30
-22.32
-26.73
-31.51
-36.51
-41.37
-45.42
-47.78
-47.58
-44.35
-38.28
-30.19
-21.27
-12.73
-5.33
0.66
5.40
9.22
12.41
15.09
17.33
19.13
20.54
21.57
22.13
22.09
21.36
20.03
18.38
16.79
15.63
15.04
14.94
15.10
15.21
15.01
14.36
13.22
11.65
9.79
7.82
5.86
3.91
1.81
-0.72
-3.94
-7.84
-12.02
-15.69
-17.93
-18.02
-15.66
-11.13
-5.08
1.66
8.37
14.51
19.77
23.98
27.05
29.00
29.88
29.86
29.11
27.77
25.96
23.75
21.24
18.53
15.75
12.96
10.18
7.46
4.84
2.46
0.41
-1.24
-2.54
-3.61
-4.63
-5.72
-6.99
-8.54
-10.48
-12.95
-16.04
-19.64
-23.34
-26.41
-28.00
-27.38
-24.23
-18.75
-11.68
-4.00
3.35
9.69
14.72
18.41
20.87
22.27
22.73
22.35
21.26
19.66
17.77
15.82
14.00
12.39
10.99
9.68
8.33
6.87
5.32
3.81
2.54
1.61
1.01
0.52
-0.14
-1.23
-2.87
-5.02
-7.57
-10.43
-13.56
-16.88
-20.10
-22.69
-23.99
-23.42
-20.80
-16.44
-11.00
-5.24
0.23
5.10
9.21
12.48
14.79
16.00
16.04
15.00
13.12
10.72
8.07
5.36
2.67
0.01
-2.63
-5.23
-7.74
-10.09
-12.17
-13.92
-15.33
-16.52
-17.66
-18.97
-20.65
-22.89
-25.72
-28.98
-32.26
-34.90
-36.18
-35.48
-32.50
-27.39
-20.66
-13.06
-5.38
1.69
7.64
12.18
15.26
16.98
17.58
17.37
16.62
15.56
14.34
13.07
11.78
10.47
9.05
7.38
5.38
3.05
0.57
-1.79
-3.74
-5.15
-6.10
-6.82
-7.62
-8.80
-10.55
-12.96
-16.00
-19.39
-22.62
-24.99
-25.79
-24.56
-21.32
-16.54
-10.99
-5.42
-0.27
4.34
8.47
12.22
15.55
18.28
20.19
21.15
21.16
20.34
18.87
16.92
14.61
12.05
9.32
6.56
3.97
1.78
0.18
-0.70
-0.89
-0.62
-0.28
-0.29
-1.12
-3.10
-6.39
-10.86
-16.03
-21.07
-24.96
-26.76
-25.91
-22.41
-16.79
-9.98
-2.90
3.73
9.52
14.42
18.48
21.75
24.12
25.44
25.56
24.50
22.49
19.91
17.20
14.75
12.74
11.19
9.98
8.94
7.95
6.98
6.05
5.18
4.26
3.10
1.42
-0.95
-4.06
-7.80
-11.99
-16.49
-21.13
-25.61
-29.43
-31.87
-32.17
-29.84
-24.93
-18.05
-10.25
-2.58
4.19
9.78
14.27
17.94
21.03
23.60
25.57
26.83
27.30
27.05
26.20
24.95
23.51
22.03
20.64
19.44
18.48
17.74
17.14
16.53
15.70
14.46
12.67
10.32
7.52
4.46
1.39
-1.50
-4.12
-6.51
-8.86
-11.40
-14.44
-18.20
-22.71
-27.71
-32.56
-36.37
-38.21
-37.40
-33.80
-27.82
-20.32
-12.27
-4.46
2.63
8.88
14.30
18.91
22.64
25.34
26.88
27.26
26.65
25.32
23.57
21.61
19.58
17.55
15.59
13.83
12.40
11.41
10.82
10.48
10.10
9.37
8.09
6.18
3.77
1.07
-1.67
-4.26
-6.61
-8.79
-10.97
-13.42
-16.41
-20.04
-24.15
-28.24
-31.51
-33.14
-32.50
-29.44
-24.30
-17.80
-10.75
-3.81
2.59
8.25
13.04
16.84
19.52
21.03
21.48
21.13
20.30
19.32
18.33
17.34
16.23
14.91
13.37
11.75
10.28
9.15
8.43
7.95
7.43
6.55
5.15
3.24
1.00
-1.36
-3.66
-5.86
-8.01
-10.22
-12.61
-15.30
-18.31
-21.56
-24.80
-27.58
-29.38
-29.69
-28.19
-24.83
-19.85
-13.75
-7.11
-0.52
5.54
10.75
14.95
18.08
20.20
21.34
21.56
20.92
19.56
17.67
15.51
13.31
11.23
9.35
7.65
6.12
4.72
3.49
2.37
1.29
0.04
-1.64
-3.92
-6.87
-10.35
-14.10
-17.77
-21.12
-24.05
-26.71
-29.39
-32.45
-36.07
-40.13
-44.16
-47.38
-48.98
-48.31
-45.06
-39.35
-31.64
-22.65
-13.12
-3.74
4.90
12.41
18.51
23.06
26.05
27.59
27.93
27.47
26.62
25.73
25.00
24.45
23.96
23.39
22.67
21.84
20.96
20.02
18.87
17.27
14.99
11.92
8.16
3.96
-0.35
-4.50
-8.37
-11.95
-15.33
-18.66
-22.13
-25.92
-30.11
-34.57
-38.84
-42.12
-43.43
-41.99
-37.52
-30.47
-21.81
-12.77
-4.33
2.93
8.93
13.80
17.75
20.87
23.18
24.71
25.62
26.20
26.77
27.59
28.75
30.11
31.45
32.50
33.05
33.03
32.50
31.53
30.18
28.40
26.07
23.10
19.54
15.62
11.74
8.36
5.80
4.19
3.38
3.02
2.61
1.63
-0.33
-3.51
-7.78
-12.67
-17.39
-20.97
-22.59
-21.75
-18.48
-13.29
-6.97
-0.34
5.94
11.46
16.06
19.65
22.19
23.62
23.95
23.27
21.82
19.92
17.89
15.96
14.20
12.61
11.15
9.80
8.65
7.79
7.28
7.02
6.74
6.07
4.62
2.17
-1.24
-5.25
-9.33
-12.92
-15.66
-17.54
-18.87
-20.19
-22.10
-24.98
-28.83
-33.21
-37.32
-40.16
-40.86
-38.89
-34.28
-27.59
-19.71
-11.66
-4.26
1.97
6.86
10.51
13.13
14.96
16.19
16.96
17.31
17.27
16.83
16.06
15.05
13.98
12.97
12.10
11.29
10.40
9.24
7.68
5.70
3.43
1.05
-1.26
-3.35
-5.23
-6.95
-8.65
-10.54
-12.83
-15.67
-19.02
-22.57
-25.74
-27.78
-27.99
-25.96
-21.73
-15.76
-8.80
-1.65
5.00
10.71
15.27
18.63
20.83
21.93
22.05
21.33
19.95
18.10
15.96
13.62
11.16
8.63
6.11
3.75
1.71
0.06
-1.23
-2.36
-3.58
-5.03
-6.75
-8.61
-10.48
-12.27
-14.08
-16.07
-18.51
-21.58
-25.38
-29.82
-34.57
-39.04
-42.42
-43.81
-42.49
-38.16
-31.11
-22.12
-12.30
-2.72
5.78
12.71
17.89
21.40
23.43
24.26
24.18
23.47
22.33
20.94
19.39
17.74
16.09
14.50
13.06
11.85
10.90
10.19
9.61
9.01
8.22
7.09
5.55
3.62
1.41
-0.94
-3.32
-5.65
-7.97
-10.43
-13.29
-16.89
-21.44
-26.82
-32.45
-37.30
-40.15
-40.04
-36.57
-30.11
-21.65
-12.44
-3.58
4.20
10.63
15.74
19.68
22.59
24.58
25.72
26.12
25.88
25.07
23.70
21.79
19.39
16.66
13.85
11.27
9.16
7.63
6.52
5.56
4.38
2.66
0.24
-2.86
-6.44
-10.19
-13.78
-17.00
-19.82
-22.43
-25.16
-28.45
-32.58
-37.51
-42.79
-47.49
-50.48
-50.68
-47.53
-41.15
-32.40
-22.52
-12.77
-3.99
3.50
9.79
15.10
19.53
23.03
25.41
26.58
26.62
25.79
24.42
22.77
20.96
19.01
16.94
14.85
12.93
11.44
10.51
10.18
10.26
10.46
10.47
9.99
8.92
7.27
5.21
2.95
0.75
-1.23
-2.96
-4.55
-6.29
-8.54
-11.66
-15.75
-20.63
-25.71
-30.14
-33.01
-33.62
-31.70
-27.46
-21.46
-14.44
-7.10
0.08
6.79
12.90
18.34
23.07
27.01
30.14
32.43
33.88
34.52
34.43
33.73
32.58
31.16
29.65
28.15
26.72
25.38
24.10
22.83
21.53
20.16
18.66
16.91
14.80
12.27
9.32
6.08
2.74
-0.53
-3.61
-6.48
-9.21
-11.89
-14.64
-17.55
-20.71
-24.24
-28.15
-32.28
-36.19
-39.20
-40.54
-39.63
-36.30
-30.84
-23.99
-16.57
-9.29
-2.52
3.66
9.32
14.47
18.98
22.59
25.12
26.52
26.97
26.75
26.18
25.44
24.57
23.52
22.22
20.68
19.00
17.34
15.87
14.68
13.77
12.96
12.02
10.66
8.72
6.18
3.20
0.05
-2.99
-5.77
-8.29
-10.65
-12.98
-15.46
-18.25
-21.50
-25.28
-29.46
-33.63
-37.12
-39.15
-39.07
-36.62
-31.97
-25.70
-18.56
-11.28
-4.38
1.85
7.31
11.98
15.87
18.96
21.26
22.77
23.57
23.76
23.49
22.91
22.16
21.30
20.40
19.47
18.51
17.51
16.48
15.39
14.28
13.16
12.05
10.92
9.70
8.29
6.61
4.63
2.37
-0.10
-2.69
-5.36
-8.03
-10.67
-13.27
-15.90
-18.70
-21.85
-25.45
-29.41
-33.36
-36.66
-38.57
-38.49
-36.08
-31.49
-25.21
-17.99
-10.59
-3.62
2.58
7.89
12.36
16.09
19.12
21.45
23.05
23.90
24.05
23.66
22.90
21.98
21.02
20.04
19.05
18.01
16.89
15.72
14.51
13.25
11.93
10.54
9.07
7.56
6.01
4.42
2.75
0.93
-1.05
-3.19
-5.42
-7.68
-9.93
-12.16
-14.39
-16.71
-19.26
-22.19
-25.54
-29.17
-32.61
-35.18
-36.10
-34.81
-31.19
-25.62
-18.85
-11.72
-4.92
1.21
6.55
11.14
14.99
18.02
20.15
21.34
21.66
21.35
20.64
19.72
18.71
17.62
16.48
15.30
14.18
13.20
12.43
11.85
11.38
10.88
10.22
9.32
8.16
6.76
5.14
3.34
1.36
-0.76
-2.96
-5.12
-7.17
-9.07
-10.94
-12.98
-15.45
-18.52
-22.19
-26.18
-29.95
-32.80
-33.98
-33.04
-29.87
-24.81
-18.50
-11.70
-5.05
1.09
6.56
11.33
15.38
18.61
20.91
22.24
22.64
22.28
21.39
20.20
18.93
17.74
16.72
15.90
15.25
14.67
14.04
13.28
12.34
11.27
10.12
8.92
7.68
6.36
4.92
3.32
1.51
-0.54
-2.86
-5.37
-8.00
-10.58
-13.03
-15.32
-17.56
-19.93
-22.61
-25.69
-29.04
-32.31
-34.95
-36.35
-36.06
-33.83
-29.79
-24.32
-17.93
-11.20
-4.60
1.53
6.93
11.44
15.01
17.68
19.60
21.00
22.04
22.82
23.33
23.48
23.18
22.44
21.35
20.09
18.90
17.95
17.28
16.79
16.24
15.37
14.05
12.28
10.24
8.14
6.11
4.14
2.09
-0.19
-2.70
-5.31
-7.82
-10.09
-12.14
-14.15
-16.37
-18.98
-22.05
-25.51
-29.18
-32.79
-35.93
-38.07
-38.68
-37.36
-34.07
-29.13
-23.20
-16.95
-10.93
-5.41
-0.47
3.87
7.56
10.48
12.54
13.74
14.26
14.34
14.21
14.01
13.73
13.29
12.63
11.76
10.80
9.87
9.06
8.37
7.66
6.76
5.53
3.89
1.88
-0.37
-2.70
-4.96
-7.08
-9.02
-10.84
-12.69
-14.79
-17.40
-20.64
-24.40
-28.19
-31.26
-32.74
-31.95
-28.63
-22.98
-15.62
-7.31
1.23
9.39
16.76
23.05
28.05
31.63
33.79
34.64
34.41
33.38
31.83
30.04
28.23
26.56
25.09
23.77
22.46
21.05
19.48
17.82
16.24
14.89
13.76
12.69
11.43
9.73
7.51
4.84
1.88
-1.25
-4.54
-8.03
-11.78
-15.71
-19.68
-23.57
-27.34
-31.14
-35.11
-39.24
-43.19
-46.31
-47.83
-47.15
-44.06
-38.88
-32.29
-25.09
-17.97
-11.31
-5.21
0.36
5.49
10.14
14.18
17.46
19.90
21.53
22.51
22.96
22.98
22.58
21.72
20.38
18.67
16.79
14.99
13.47
12.32
11.49
10.81
10.06
9.09
7.80
6.25
4.55
2.85
1.22
-0.32
-1.88
-3.65
-5.77
-8.37
-11.54
-15.32
-19.69
-24.54
-29.55
-34.13
-37.50
-38.87
-37.70
-33.92
-27.98
-20.73
-13.13
-5.96
0.41
5.90
10.66
14.83
18.44
21.39
23.56
24.93
25.55
25.59
25.22
24.51
23.49
22.20
20.75
19.37
18.32
17.83
17.89
18.27
18.56
18.31
17.15
14.99
11.94
8.35
4.59
0.97
-2.38
-5.48
-8.50
-11.70
-15.35
-19.70
-24.91
-30.85
-37.05
-42.60
-46.40
-47.44
-45.20
-39.84
-32.20
-23.47
-14.79
-6.95
-0.27
5.35
10.20
14.51
18.38
21.71
24.34
26.13
27.07
27.29
27.02
26.47
25.78
24.97
23.97
22.71
21.23
19.67
18.26
17.17
16.47
16.04
15.60
14.85
13.55
11.66
9.32
6.75
4.10
1.40
-1.45
-4.61
-8.24
-12.41
-17.14
-22.28
-27.47
-32.18
-35.66
-37.15
-36.09
-32.34
-26.25
-18.64
-10.54
-2.93
3.47
8.35
11.76
13.99
15.46
16.49
17.29
17.90
18.32
18.52
18.54
18.39
18.07
17.47
16.49
15.09
13.37
11.61
10.07
8.98
8.29
7.79
7.13
5.99
4.23
1.86
-0.95
-4.00
-7.08
-10.07
-12.91
-15.63
-18.33
-21.14
-24.09
-27.04
-29.60
-31.14
-30.97
-28.60
-23.96
-17.44
-9.82
-2.00
5.24
11.42
16.40
20.27
23.19
25.33
26.73
27.40
27.30
26.47
25.00
23.09
20.97
18.83
16.77
14.85
13.10
11.57
10.31
9.34
8.59
7.84
6.85
5.41
3.54
1.44
-0.60
-2.36
-3.80
-5.09
-6.46
-8.12
-10.18
-12.67
-15.58
-18.89
-22.43
-25.79
-28.32
-29.23
-27.91
-24.17
-18.42
-11.53
-4.51
1.79
6.92
10.80
13.62
15.63
17.00
17.81
18.09
17.87
17.28
16.43
15.45
14.39
13.26
12.01
10.62
9.15
7.68
6.30
5.07
4.01
3.03
1.99
0.75
-0.77
-2.56
-4.52
-6.52
-8.46
-10.31
-12.19
-14.29
-16.83
-19.92
-23.46
-27.08
-30.15
-31.93
-31.79
-29.38
-24.81
-18.60
-11.56
-4.53
1.83
7.13
11.27
14.34
16.46
17.81
18.54
18.79
18.73
18.44
17.96
17.23
16.15
14.66
12.79
10.75
8.79
7.17
5.98
5.16
4.49
3.71
2.66
1.30
-0.29
-2.00
-3.75
-5.55
-7.48
-9.65
-12.17
-15.13
-18.45
-21.93
-25.17
-27.65
-28.83
-28.41
-26.35
-22.99
-18.85
-14.47
-10.23
-6.32
-2.76
0.42
3.15
5.25
6.49
6.73
6.00
4.53
2.67
0.82
-0.76
-1.96
-2.81
-3.46
-4.02
-4.62
-5.36
-6.29
-7.42
-8.73
-10.12
-11.49
-12.84
-14.28
-16.04
-18.42
-21.64
-25.74
-30.46
-35.22
-39.18
-41.47
-41.40
-38.72
-33.76
-27.24
-20.10
-13.11
-6.70
-1.01
4.03
8.45
12.19
15.10
17.03
17.94
17.93
17.19
16.00
14.69
13.61
13.05
13.18
14.01
15.37
16.93
18.33
19.26
19.53
19.07
17.93
16.22
14.12
11.80
9.48
7.31
5.37
3.55
1.67
-0.47
-2.84
-5.10
-6.62
-6.71
-4.92
-1.32
3.50
8.68
13.40
17.24
20.20
22.60
24.77
26.86
28.72
30.07
30.63
30.26
29.01
27.04
24.51
21.63
18.62
15.72
13.23
11.39
10.27
9.75
9.49
9.11
8.26
6.75
4.58
1.92
-0.96
-3.84
-6.58
-9.18
-11.76
-14.52
-17.64
-21.20
-25.07
-28.90
-32.09
-33.95
-33.84
-31.43
-26.84
-20.63
-13.63
-6.65
-0.24
5.43
10.44
14.89
18.74
21.73
23.58
24.17
23.65
22.42
20.93
19.49
18.19
16.93
15.54
13.94
12.19
10.49
9.05
8.03
7.40
6.98
6.43
5.43
3.76
1.44
-1.34
-4.20
-6.84
-9.11
-11.09
-13.03
-15.21
-17.84
-21.02
-24.68
-28.61
-32.41
-35.51
-37.23
-36.96
-34.40
-29.68
-23.32
-16.12
-8.86
-2.17
3.62
8.34
12.01
14.67
16.44
17.47
17.92
17.94
17.60
16.89
15.79
14.30
12.46
10.39
8.19
6.00
3.91
1.99
0.27
-1.33
-2.98
-4.89
-7.29
-10.30
-13.83
-17.66
-21.50
-25.10
-28.35
-31.34
-34.41
-37.94
-42.25
-47.28
-52.53
-57.07
-59.75
-59.61
-56.15
-49.50
-40.35
-29.64
-18.32
-7.06
3.70
13.73
22.81
30.73
37.24
42.13
45.32
46.89
47.02
45.97
44.04
41.45
38.44
35.17
31.79
28.39
25.03
21.73
18.48
15.24
11.97
8.63
5.18
1.68
-1.82
-5.21
-8.44
-11.53
-14.58
-17.65
-20.67
-23.29
-24.89
-24.80
-22.51
-17.87
-11.23
-3.27
5.15
13.20
20.23
25.80
29.67
31.81
32.35
31.55
29.75
27.30
24.45
21.39
18.24
15.13
12.18
9.61
7.60
6.33
5.81
5.91
6.31
6.54
6.12
4.71
2.24
-1.04
-4.65
-8.05
-10.84
-12.96
-14.63
-16.29
-18.41
-21.31
-24.99
-29.17
-33.20
-36.28
-37.62
-36.67
-33.25
-27.65
-20.52
-12.67
-4.90
2.20
8.27
13.18
16.98
19.76
21.66
22.80
23.30
23.30
22.92
22.24
21.32
20.14
18.72
17.09
15.39
13.80
12.51
11.57
10.86
10.11
9.01
7.35
5.15
2.62
0.07
-2.24
-4.20
-5.92
-7.67
-9.82
-12.72
-16.60
-21.44
-26.82
-31.92
-35.65
-36.91
-34.98
-29.74
-21.80
-12.23
-2.22
7.22
15.51
22.38
27.78
31.70
34.15
35.25
35.29
34.74
34.10
33.64
33.32
32.80
31.55
29.18
25.58
21.04
16.09
11.35
7.27
4.12
1.89
0.44
-0.43
-0.94
-1.35
-1.96
-3.08
-4.99
-7.82
-11.52
-15.85
-20.47
-25.09
-29.58
-33.97
-38.33
-42.60
-46.40
-49.06
-49.73
-47.73
-42.84
-35.48
-26.51
-17.04
-8.04
-0.15
6.39
11.59
15.55
18.38
20.21
21.22
21.66
21.83
21.98
22.23
22.52
22.73
22.66
22.18
21.25
19.94
18.46
17.04
15.89
15.07
14.46
13.79
12.76
11.14
8.89
6.14
3.15
0.17
-2.67
-5.34
-7.92
-10.57
-13.48
-16.89
-20.95
-25.63
-30.54
-34.92
-37.74
-38.07
-35.38
-29.86
-22.31
-13.86
-5.63
1.64
7.63
12.35
15.92
18.48
20.14
21.04
21.37
21.38
21.27
21.11
20.81
20.26
19.33
18.03
16.48
14.89
13.44
12.26
11.34
10.52
9.56
8.21
6.31
3.89
1.16
-1.61
-4.16
-6.36
-8.29
-10.15
-12.23
-14.82
-18.16
-22.33
-27.14
-32.08
-36.32
-38.90
-39.00
-36.22
-30.77
-23.34
-14.91
-6.40
1.51
8.39
14.03
18.31
21.17
22.65
22.91
22.25
20.99
19.42
17.72
15.97
14.21
12.48
10.85
9.37
8.05
6.88
5.76
4.62
3.37
1.96
0.37
-1.36
-3.14
-4.87
-6.47
-7.93
-9.39
-11.07
-13.27
-16.24
-20.04
-24.46
-28.97
-32.78
-35.07
-35.20
-32.90
-28.39
-22.24
-15.19
-7.92
-0.91
5.56
11.30
16.09
19.65
21.68
22.01
20.72
18.13
14.82
11.47
8.70
6.97
6.45
7.05
8.44
10.16
11.74
12.73
12.82
11.84
9.78
6.82
3.30
-0.35
-3.68
-6.39
-8.40
-9.85
-11.12
-12.65
-14.79
-17.61
-20.80
-23.62
-25.22
-24.82
-22.04
-17.02
-10.35
-2.89
4.53
11.25
16.89
21.34
24.64
26.88
28.15
28.50
28.00
26.75
24.97
22.94
20.97
19.30
17.97
16.85
15.74
14.43
12.86
11.04
9.06
7.00
4.91
2.81
0.71
-1.33
-3.28
-5.15
-7.01
-9.03
-11.41
-14.32
-17.73
-21.40
-24.77
-27.15
-27.89
-26.60
-23.29
-18.40
-12.59
-6.55
-0.86
4.16
8.34
11.65
14.04
15.48
15.99
15.68
14.74
13.43
11.99
10.60
9.38
8.33
7.43
6.61
5.82
4.96
3.96
2.73
1.25
-0.48
-2.36
-4.24
-5.97
-7.50
-8.90
-10.39
-12.28
-14.79
-17.95
-21.39
-24.46
-26.39
-26.54
-24.64
-20.87
-15.77
-10.00
-4.15
1.36
6.35
10.70
14.27
16.87
18.32
18.57
17.73
16.09
14.04
11.97
10.14
8.68
7.56
6.66
5.78
4.73
3.39
1.76
-0.08
-1.95
-3.67
-5.15
-6.40
-7.54
-8.82
-10.52
-12.94
-16.20
-20.16
-24.34
-27.93
-30.04
-29.94
-27.40
-22.71
-16.60
-10.00
-3.67
1.89
6.51
10.24
13.16
15.28
16.56
16.92
16.39
15.09
13.24
11.10
8.87
6.66
4.46
2.30
0.21
-1.64
-3.03
-3.75
-3.77
-3.25
-2.56
-2.13
-2.37
-3.55
-5.78
-9.03
-13.14
-17.79
-22.49
-26.56
-29.24
-29.89
-28.20
-24.28
-18.72
-12.30
-5.85
0.04
5.14
9.46
13.19
16.49
19.34
21.57
22.88
22.99
21.80
19.43
16.25
12.72
9.33
6.44
4.24
2.78
1.98
1.63
1.48
1.24
0.68
-0.32
-1.77
-3.59
-5.67
-7.96
-10.57
-13.65
-17.39
-21.80
-26.60
-31.10
-34.35
-35.40
-33.62
-28.94
-21.93
-13.55
-4.91
3.08
9.85
15.23
19.30
22.28
24.41
25.88
26.81
27.22
27.08
26.35
25.05
23.30
21.30
19.26
17.37
15.68
14.18
12.80
11.44
9.98
8.31
6.34
4.01
1.38
-1.41
-4.16
-6.71
-9.02
-11.23
-13.65
-16.62
-20.38
-24.83
-29.46
-33.42
-35.69
-35.48
-32.44
-26.83
-19.43
-11.20
-3.05
4.37
10.73
15.90
19.88
22.70
24.41
25.10
24.96
24.24
23.21
22.09
21.03
20.05
19.10
18.07
16.91
15.67
14.47
13.43
12.57
11.73
10.63
8.97
6.62
3.71
0.60
-2.33
-4.82
-6.88
-8.76
-10.84
-13.49
-16.91
-21.11
-25.85
-30.72
-35.06
-38.10
-39.07
-37.39
-32.94
-26.08
-17.67
-8.78
-0.42
6.71
12.32
16.50
19.50
21.57
22.89
23.54
23.56
23.03
22.07
20.84
19.43
17.92
16.34
14.75
13.27
12.05
11.16
10.56
10.06
9.40
8.32
6.70
4.57
2.08
-0.56
-3.18
-5.70
-8.16
-10.71
-13.61
-17.08
-21.18
-25.64
-29.83
-32.87
-33.87
-32.33
-28.25
-22.20
-15.03
-7.58
-0.48
5.96
11.60
16.36
20.11
22.71
24.11
24.44
23.98
23.09
22.05
20.94
19.77
18.44
16.93
15.28
13.62
12.08
10.73
9.54
8.44
7.30
6.00
4.44
2.57
0.42
-1.92
-4.32
-6.65
-8.89
-11.08
-13.44
-16.20
-19.57
-23.55
-27.82
-31.72
-34.39
-34.98
-32.98
-28.43
-21.88
-14.27
-6.54
0.58
6.76
11.98
16.35
19.96
22.77
24.66
25.56
25.51
24.72
23.52
22.23
21.04
20.01
19.01
17.90
16.62
15.26
13.99
12.98
12.27
11.71
11.01
9.86
8.07
5.68
2.88
0.00
-2.71
-5.15
-7.37
-9.55
-11.87
-14.47
-17.42
-20.76
-24.49
-28.49
-32.43
-35.70
-37.54
-37.25
-34.46
-29.31
-22.41
-14.65
-6.91
0.16
6.24
11.25
15.28
18.42
20.77
22.40
23.38
23.77
23.63
23.04
22.06
20.75
19.18
17.46
15.68
13.98
12.49
11.31
10.49
9.97
9.60
9.19
8.48
7.31
5.57
3.31
0.69
-2.09
-4.81
-7.36
-9.74
-12.08
-14.56
-17.38
-20.66
-24.36
-28.23
-31.78
-34.31
-35.15
-33.81
-30.18
-24.61
-17.82
-10.61
-3.70
2.47
7.70
11.97
15.32
17.81
19.50
20.49
20.90
20.88
20.53
19.88
18.96
17.76
16.34
14.76
13.15
11.62
10.27
9.16
8.28
7.57
6.88
6.04
4.89
3.34
1.43
-0.73
-2.95
-5.04
-6.93
-8.67
-10.44
-12.52
-15.15
-18.49
-22.43
-26.62
-30.41
-33.06
-33.88
-32.45
-28.78
-23.27
-16.63
-9.65
-3.01
2.86
7.81
11.85
15.08
17.57
19.31
20.27
20.45
20.01
19.19
18.27
17.41
16.60
15.68
14.47
12.88
11.08
9.37
8.04
7.24
6.82
6.47
5.80
4.59
2.84
0.71
-1.53
-3.68
-5.64
-7.44
-9.23
-11.15
-13.40
-16.12
-19.39
-23.15
-27.07
-30.57
-32.91
-33.37
-31.49
-27.26
-21.17
-14.03
-6.72
0.04
5.86
10.62
14.38
17.21
19.15
20.23
20.53
20.23
19.60
18.88
18.19
17.48
16.58
15.29
13.56
11.55
9.59
8.04
7.11
6.73
6.57
6.15
5.05
3.11
0.46
-2.57
-5.58
-8.28
-10.60
-12.61
-14.51
-16.50
-18.77
-21.43
-24.51
-27.81
-30.86
-32.99
-33.41
-31.55
-27.28
-21.00
-13.53
-5.83
1.33
7.48
12.49
16.39
19.29
21.25
22.31
22.59
22.27
21.57
20.64
19.55
18.24
16.63
14.73
12.68
10.74
9.20
8.22
7.79
7.63
7.35
6.53
4.96
2.66
-0.12
-2.98
-5.60
-7.78
-9.58
-11.19
-12.90
-14.99
-17.65
-20.90
-24.59
-28.31
-31.43
-33.20
-32.93
-30.26
-25.25
-18.48
-10.84
-3.27
3.46
8.93
13.05
16.01
18.07
19.42
20.22
20.51
20.30
19.61
18.55
17.20
15.68
14.07
12.42
10.81
9.29
7.98
6.96
6.27
5.81
5.34
4.56
3.16
1.06
-1.58
-4.37
-6.89
-8.83
-10.22
-11.37
-12.73
-14.75
-17.59
-21.15
-24.95
-28.36
-30.63
-31.17
-29.61
-25.95
-20.58
-14.15
-7.36
-0.85
4.98
9.91
13.86
16.78
18.69
19.66
19.85
19.49
18.78
17.82
16.64
15.25
13.70
12.10
10.59
9.25
8.09
7.09
6.16
5.21
4.17
2.98
1.56
-0.13
-2.08
-4.21
-6.39
-8.54
-10.68
-12.96
-15.60
-18.81
-22.59
-26.61
-30.22
-32.59
-32.93
-30.83
-26.41
-20.27
-13.29
-6.33
0.03
5.54
10.23
14.20
17.50
20.06
21.82
22.73
22.85
22.32
21.31
19.95
18.30
16.41
14.34
12.26
10.34
8.76
7.59
6.74
5.98
5.04
3.69
1.89
-0.28
-2.62
-4.93
-7.06
-8.96
-10.75
-12.69
-15.10
-18.25
-22.22
-26.74
-31.18
-34.64
-36.23
-35.37
-31.99
-26.56
-19.88
-12.79
-5.92
0.42
6.15
11.28
15.76
19.39
22.01
23.52
24.03
23.76
23.02
22.01
20.82
19.41
17.76
15.89
13.94
12.17
10.79
9.87
9.29
8.76
7.92
6.52
4.55
2.16
-0.36
-2.78
-4.98
-6.99
-8.95
-11.03
-13.39
-16.19
-19.55
-23.49
-27.71
-31.66
-34.52
-35.45
-33.90
-29.85
-23.77
-16.51
-8.95
-1.77
4.65
10.17
14.77
18.45
21.17
22.92
23.76
23.82
23.27
22.27
20.98
19.47
17.83
16.14
14.46
12.86
11.40
10.15
9.10
8.19
7.25
6.01
4.25
1.84
-1.13
-4.44
-7.75
-10.83
-13.60
-16.20
-18.89
-21.96
-25.51
-29.40
-33.18
-36.21
-37.87
-37.72
-35.67
-32.02
-27.31
-22.20
-17.20
-12.65
-8.69
-5.40
-2.85
-1.14
-0.36
-0.58
-1.75
-3.73
-6.30
-9.14
-11.96
-14.40
-16.22
-17.28
-17.63
-17.51
-17.27
-17.24
-17.64
-18.51
-19.78
-21.37
-23.24
-25.47
-28.22
-31.64
-35.80
-40.57
-45.55
-50.07
-53.28
-54.32
-52.58
-47.94
-40.74
-31.75
-21.86
-11.86
-2.26
6.68
14.78
21.88
27.77
32.30
35.44
37.39
38.52
39.32
40.22
41.52
43.33
45.56
48.02
50.49
52.74
54.61
56.05
57.06
57.68
57.88
57.55
56.51
54.60
51.79
48.20
44.11
39.83
35.58
31.43
27.33
23.27
19.26
15.40
11.65
7.83
3.63
-1.11
-6.22
-11.05
-14.67
-16.22
-15.28
-12.03
-7.10
-1.29
4.73
10.55
15.94
20.69
24.56
27.29
28.72
28.92
28.14
26.77
25.15
23.49
21.84
20.16
18.38
16.49
14.59
12.84
11.38
10.29
9.51
8.87
8.10
6.97
5.34
3.20
0.68
-2.01
-4.64
-7.04
-9.18
-11.17
-13.22
-15.58
-18.48
-22.01
-26.10
-30.43
-34.45
-37.43
-38.63
-37.48
-33.81
-27.93
-20.55
-12.58
-4.87
2.03
7.89
12.70
16.50
19.32
21.12
21.91
21.81
21.06
19.93
18.64
17.28
15.84
14.28
12.61
10.93
9.33
7.86
6.49
5.15
3.74
2.25
0.70
-0.87
-2.47
-4.17
-6.01
-8.06
-10.34
-12.94
-15.99
-19.58
-23.62
-27.59
-30.68
-31.95
-30.72
-26.87
-20.96
-13.92
-6.78
-0.28
5.27
9.86
13.67
16.77
19.16
20.72
21.39
21.19
20.28
18.92
17.36
15.79
14.28
12.79
11.19
9.41
7.47
5.50
3.67
2.09
0.75
-0.46
-1.74
-3.21
-4.90
-6.77
-8.80
-11.08
-13.78
-17.15
-21.27
-25.83
-30.14
-33.18
-33.99
-32.02
-27.36
-20.73
-13.16
-5.69
1.02
6.66
11.29
15.04
17.96
20.03
21.19
21.45
20.95
19.93
18.64
17.25
15.81
14.34
12.80
11.16
9.48
7.79
6.13
4.54
3.01
1.53
0.09
-1.30
-2.72
-4.32
-6.27
-8.72
-11.76
-15.35
-19.27
-23.15
-26.43
-28.46
-28.67
-26.68
-22.53
-16.67
-9.92
-3.16
2.89
7.87
11.76
14.76
17.06
18.76
19.82
20.18
19.85
18.94
17.60
15.98
14.18
12.24
10.16
8.01
5.86
3.82
1.96
0.34
-1.07
-2.31
-3.45
-4.54
-5.67
-6.91
-8.38
-10.24
-12.63
-15.63
-19.14
-22.80
-26.02
-28.07
-28.31
-26.39
-22.41
-16.86
-10.49
-4.01
2.02
7.31
11.74
15.26
17.83
19.38
19.91
19.50
18.40
16.86
15.12
13.33
11.58
9.91
8.33
6.88
5.54
4.24
2.90
1.45
-0.10
-1.71
-3.31
-4.88
-6.45
-8.09
-9.85
-11.79
-13.97
-16.42
-19.16
-22.03
-24.70
-26.61
-27.15
-25.85
-22.55
-17.52
-11.32
-4.66
1.79
7.55
12.33
16.05
18.70
20.31
20.94
20.62
19.46
17.66
15.45
13.16
11.06
9.31
7.96
6.90
5.96
4.97
3.85
2.58
1.20
-0.23
-1.65
-3.07
-4.52
-6.07
-7.83
-9.91
-12.41
-15.37
-18.72
-22.21
-25.36
-27.54
-28.16
-26.84
-23.53
-18.57
-12.56
-6.14
0.08
5.68
10.37
13.98
16.48
17.93
18.56
18.61
18.31
17.71
16.74
15.29
13.35
11.08
8.80
6.82
5.33
4.30
3.53
2.76
1.79
0.57
-0.85
-2.36
-3.88
-5.43
-7.09
-8.97
-11.12
-13.61
-16.42
-19.46
-22.57
-25.42
-27.56
-28.44
-27.59
-24.74
-19.97
-13.68
-6.57
0.55
6.89
11.91
15.38
17.42
18.44
18.91
19.24
19.53
19.61
19.20
18.02
16.02
13.42
10.59
7.93
5.72
4.08
2.98
2.32
1.88
1.43
0.75
-0.31
-1.80
-3.61
-5.58
-7.52
-9.36
-11.14
-13.08
-15.38
-18.21
-21.50
-24.90
-27.77
-29.38
-29.07
-26.55
-21.97
-15.88
-9.06
-2.30
3.77
8.77
12.58
15.26
17.00
17.97
18.35
18.18
17.48
16.27
14.60
12.64
10.60
8.74
7.24
6.13
5.32
4.62
3.82
2.77
1.41
-0.20
-1.93
-3.66
-5.34
-6.97
-8.58
-10.26
-12.06
-14.06
-16.35
-18.95
-21.70
-24.17
-25.75
-25.74
-23.62
-19.32
-13.20
-6.08
1.12
7.54
12.66
16.34
18.72
20.12
20.85
21.10
20.94
20.35
19.29
17.77
15.83
13.56
11.12
8.65
6.38
4.45
2.99
1.97
1.26
0.62
-0.20
-1.38
-2.97
-4.91
-7.04
-9.19
-11.26
-13.23
-15.24
-17.52
-20.28
-23.65
-27.43
-31.13
-34.01
-35.28
-34.37
-31.08
-25.65
-18.67
-10.90
-3.14
3.99
10.07
14.90
18.50
20.99
22.57
23.39
23.64
23.46
22.98
22.30
21.43
20.34
18.92
17.14
15.07
12.91
10.90
9.21
7.82
6.58
5.27
3.74
1.96
0.01
-1.97
-3.94
-5.91
-7.94
-10.12
-12.51
-15.18
-18.20
-21.64
-25.39
-29.10
-32.15
-33.77
-33.33
-30.55
-25.70
-19.42
-12.52
-5.64
0.83
6.77
12.13
16.83
20.67
23.42
24.94
25.30
24.74
23.64
22.39
21.23
20.26
19.41
18.52
17.43
16.07
14.52
12.91
11.39
10.03
8.76
7.43
5.86
3.91
1.55
-1.16
-4.06
-6.99
-9.75
-12.25
-14.47
-16.53
-18.67
-21.17
-24.32
-28.14
-32.34
-36.26
-38.97
-39.60
-37.61
-32.98
-26.22
-18.20
-9.81
-1.75
5.51
11.74
16.78
20.55
23.02
24.30
24.62
24.32
23.68
22.90
22.02
20.99
19.76
18.32
16.72
15.06
13.46
11.99
10.71
9.59
8.53
7.36
5.88
3.97
1.63
-0.95
-3.51
-5.82
-7.79
-9.54
-11.27
-13.24
-15.62
-18.53
-21.98
-25.85
-29.79
-33.21
-35.31
-35.32
-32.78
-27.78
-20.92
-13.09
-5.21
2.12
8.58
14.06
18.55
22.02
24.45
25.90
26.49
26.43
25.88
24.98
23.80
22.40
20.85
19.22
17.59
16.01
14.56
13.32
12.34
11.62
11.05
10.47
9.67
8.52
6.96
5.01
2.73
0.22
-2.41
-5.08
-7.65
-10.04
-12.21
-14.22
-16.26
-18.59
-21.50
-25.17
-29.53
-34.15
-38.29
-41.01
-41.45
-39.07
-33.90
-26.48
-17.74
-8.66
-0.10
7.39
13.57
18.40
21.95
24.33
25.68
26.16
25.93
25.20
24.16
23.01
21.87
20.78
19.74
18.70
17.63
16.56
15.54
14.61
13.78
12.97
12.07
10.97
9.60
7.94
6.01
3.89
1.62
-0.74
-3.17
-5.59
-7.94
-10.19
-12.35
-14.56
-17.03
-19.98
-23.56
-27.66
-31.90
-35.60
-37.93
-38.14
-35.81
-30.99
-24.21
-16.31
-8.24
-0.75
5.72
11.07
15.40
18.87
21.60
23.61
24.91
25.54
25.58
25.15
24.29
23.06
21.52
19.78
18.07
16.63
15.61
14.99
14.61
14.17
13.43
12.26
10.71
8.94
7.13
5.42
3.81
2.20
0.45
-1.56
-3.85
-6.35
-8.92
-11.42
-13.81
-16.18
-18.69
-21.54
-24.82
-28.45
-32.16
-35.45
-37.75
-38.49
-37.27
-33.95
-28.68
-21.92
-14.27
-6.44
0.93
7.34
12.49
16.33
18.99
20.72
21.77
22.33
22.51
22.39
22.03
21.55
21.03
20.53
20.00
19.30
18.31
17.00
15.46
13.93
12.66
11.78
11.21
10.72
9.97
8.74
6.94
4.70
2.29
-0.09
-2.31
-4.42
-6.50
-8.66
-10.93
-13.38
-16.09
-19.14
-22.56
-26.15
-29.45
-31.78
-32.44
-31.00
-27.42
-22.11
-15.78
-9.21
-3.01
2.45
7.01
10.69
13.55
15.59
16.84
17.34
17.22
16.68
15.97
15.31
14.77
14.28
13.64
12.70
11.42
9.97
8.61
7.57
6.91
6.46
5.91
4.98
3.54
1.69
-0.33
-2.31
-4.15
-5.94
-7.85
-10.02
-12.52
-15.30
-18.28
-21.38
-24.43
-27.15
-29.07
-29.60
-28.23
-24.78
-19.46
-12.88
-5.81
1.04
7.24
12.58
16.99
20.41
22.69
23.72
23.49
22.18
20.18
17.92
15.81
14.08
12.75
11.66
10.65
9.59
8.52
7.58
6.88
6.42
5.98
5.25
3.94
1.99
-0.45
-3.07
-5.57
-7.77
-9.68
-11.40
-13.10
-14.96
-17.21
-20.05
-23.61
-27.71
-31.78
-34.94
-36.24
-35.07
-31.40
-25.80
-19.22
-12.56
-6.44
-1.05
3.65
7.78
11.38
14.34
16.57
18.09
19.02
19.56
19.87
19.97
19.80
19.23
18.22
16.82
15.21
13.62
12.23
11.11
10.26
9.58
8.91
8.11
7.02
5.57
3.74
1.58
-0.79
-3.27
-5.81
-8.49
-11.44
-14.86
-18.79
-23.04
-27.14
-30.38
-32.04
-31.60
-28.95
-24.45
-18.84
-12.89
-7.27
-2.26
2.09
5.88
9.12
11.70
13.41
14.10
13.80
12.70
11.14
9.41
7.77
6.34
5.26
4.60
4.49
4.96
5.97
7.31
8.68
9.71
10.13
9.82
8.83
7.35
5.62
3.88
2.19
0.52
-1.30
-3.53
-6.38
-10.01
-14.39
-19.24
-24.00
-27.88
-30.04
-29.86
-27.12
-22.13
-15.64
-8.58
-1.75
4.31
9.40
13.55
16.85
19.35
21.09
22.08
22.44
22.30
21.82
21.11
20.18
18.99
17.50
15.73
13.82
12.00
10.52
9.51
8.90
8.45
7.80
6.65
4.84
2.46
-0.25
-2.98
-5.49
-7.69
-9.68
-11.71
-14.09
-17.07
-20.73
-24.89
-29.01
-32.33
-34.07
-33.64
-30.82
-25.89
-19.44
-12.22
-4.97
1.79
7.76
12.85
17.08
20.45
22.99
24.70
25.66
26.04
26.01
25.76
25.33
24.69
23.74
22.40
20.69
18.72
16.68
14.72
12.96
11.42
10.08
8.85
7.64
6.31
4.74
2.87
0.71
-1.63
-4.01
-6.34
-8.61
-10.91
-13.41
-16.24
-19.49
-23.13
-27.03
-30.86
-34.18
-36.40
-37.01
-35.67
-32.38
-27.48
-21.58
-15.35
-9.30
-3.75
1.12
5.25
8.56
11.01
12.67
13.71
14.35
14.76
14.94
14.81
14.23
13.20
11.84
10.43
9.22
8.33
7.73
7.22
6.59
5.65
4.33
2.66
0.72
-1.34
-3.43
-5.46
-7.49
-9.65
-12.20
-15.36
-19.19
-23.43
-27.49
-30.54
-31.84
-30.94
-27.90
-23.20
-17.56
-11.69
-6.09
-1.02
3.43
7.23
10.31
12.57
13.94
14.37
13.90
12.61
10.63
8.20
5.71
3.66
2.62
2.97
4.79
7.77
11.26
14.56
17.10
18.60
19.02
18.48
17.02
14.67
11.44
7.43
2.92
-1.74
-6.19
-10.30
-14.17
-18.09
-22.24
-26.50
-30.30
-32.79
-33.09
-30.74
-25.84
-19.08
-11.49
-4.03
2.68
8.42
13.29
17.45
20.93
23.65
25.45
26.27
26.22
25.60
24.72
23.86
23.04
22.13
20.88
19.08
16.70
13.91
11.05
8.46
6.42
4.97
3.93
2.98
1.71
-0.13
-2.60
-5.54
-8.61
-11.46
-13.88
-15.87
-17.64
-19.60
-22.16
-25.66
-30.13
-35.20
-40.06
-43.64
-44.89
-43.17
-38.49
-31.49
-23.22
-14.78
-7.00
-0.34
5.06
9.17
11.97
13.48
13.74
12.97
11.49
9.67
7.83
6.13
4.61
3.19
1.74
0.17
-1.50
-3.12
-4.43
-5.13
-4.99
-3.94
-2.11
0.23
2.80
5.42
8.03
10.70
13.51
16.46
19.42
22.13
24.18
25.14
24.55
22.17
18.11
13.01
7.92
4.07
2.41
3.31
6.40
10.81
15.58
19.96
23.63
26.62
29.07
31.02
32.37
32.97
32.72
31.74
30.23
28.44
26.57
24.66
22.68
20.59
18.38
16.10
13.88
11.84
10.12
8.80
7.86
7.18
6.53
5.65
4.30
2.46
0.28
-1.90
-3.75
-5.11
-6.02
-6.76
-7.70
-9.21
-11.54
-14.76
-18.74
-23.06
-27.01
-29.70
-30.24
-28.09
-23.19
-16.08
-7.66
1.05
9.19
16.20
21.87
26.18
29.20
31.05
31.83
31.65
30.61
28.83
26.45
23.62
20.45
17.07
13.59
10.14
6.90
4.06
1.80
0.19
-0.85
-1.59
-2.39
-3.58
-5.40
-7.86
-10.80
-13.94
-16.92
-19.49
-21.48
-22.85
-23.69
-24.26
-24.90
-26.03
-27.94
-30.70
-33.93
-36.88
-38.57
-38.16
-35.25
-30.04
-23.26
-15.86
-8.68
-2.30
3.08
7.44
10.81
13.16
14.47
14.75
14.16
12.98
11.56
10.19
8.98
7.87
6.67
5.21
3.48
1.65
0.04
-1.03
-1.41
-1.19
-0.67
-0.23
-0.13
-0.46
-1.14
-2.03
-3.00
-4.04
-5.23
-6.73
-8.64
-11.04
-13.88
-16.97
-19.98
-22.44
-23.91
-24.05
-22.75
-20.15
-16.57
-12.40
-8.04
-3.83
-0.01
3.22
5.79
7.69
8.99
9.79
10.15
10.09
9.66
8.94
8.07
7.25
6.57
6.09
5.71
5.32
4.79
4.04
3.00
1.66
0.05
-1.73
-3.55
-5.27
-6.82
-8.27
-9.77
-11.52
-13.68
-16.31
-19.35
-22.53
-25.37
-27.30
-27.70
-26.13
-22.54
-17.26
-10.95
-4.40
1.77
7.21
11.78
15.50
18.41
20.51
21.81
22.35
22.23
21.57
20.50
19.09
17.41
15.55
13.61
11.67
9.79
8.01
6.36
4.84
3.42
2.04
0.59
-0.99
-2.70
-4.44
-6.06
-7.51
-8.87
-10.44
-12.60
-15.63
-19.58
-24.12
-28.61
-32.24
-34.23
-34.10
-31.77
-27.59
-22.25
-16.49
-10.98
-6.10
-1.98
1.42
4.20
6.42
8.03
8.93
9.08
8.48
7.29
5.76
4.20
2.89
2.10
1.95
2.44
3.43
4.68
5.85
6.66
6.92
6.67
6.05
5.25
4.36
3.28
1.75
-0.50
-3.61
-7.50
-11.88
-16.25
-20.05
-22.68
-23.58
-22.35
-18.90
-13.49
-6.80
0.32
7.01
12.67
17.07
20.25
22.40
23.70
24.23
24.05
23.22
21.88
20.20
18.38
16.58
14.90
13.38
12.03
10.85
9.83
8.91
8.00
6.94
5.57
3.81
1.66
-0.74
-3.22
-5.61
-7.89
-10.20
-12.80
-15.96
-19.78
-24.10
-28.47
-32.13
-34.27
-34.17
-31.45
-26.20
-19.04
-10.89
-2.75
4.59
10.71
15.56
19.29
22.08
24.08
25.31
25.78
25.53
24.73
23.56
22.23
20.86
19.48
18.08
16.58
14.98
13.32
11.66
10.03
8.39
6.67
4.80
2.76
0.57
-1.70
-4.07
-6.58
-9.36
-12.55
-16.26
-20.50
-25.07
-29.56
-33.38
-35.79
-36.15
-34.08
-29.63
-23.32
-15.97
-8.43
-1.35
4.94
10.39
15.05
18.96
22.06
24.20
25.32
25.42
24.68
23.34
21.66
19.87
18.12
16.51
15.08
13.83
12.69
11.55
10.33
8.95
7.43
5.77
3.99
2.08
-0.03
-2.38
-5.02
-8.02
-11.48
-15.52
-20.10
-24.93
-29.35
-32.46
-33.37
-31.51
-26.91
-20.18
-12.35
-4.46
2.71
8.74
13.58
17.34
20.17
22.12
23.26
23.59
23.23
22.31
20.98
19.40
17.66
15.86
14.06
12.37
10.86
9.57
8.46
7.41
6.23
4.78
2.98
0.85
-1.48
-3.88
-6.25
-8.56
-10.89
-13.40
-16.31
-19.78
-23.81
-28.17
-32.34
-35.62
-37.26
-36.70
-33.75
-28.61
-21.85
-14.20
-6.41
0.92
7.43
12.99
17.61
21.36
24.28
26.35
27.52
27.81
27.28
26.12
24.57
22.91
21.33
19.98
18.85
17.83
16.74
15.33
13.42
10.92
7.90
4.52
1.01
-2.47
-5.85
-9.19
-12.58
-16.12
-19.89
-23.95
-28.26
-32.55
-36.36
-38.92
-39.44
-37.33
-32.51
-25.46
-17.12
-8.59
-0.76
5.86
11.13
15.19
18.27
20.55
22.18
23.26
23.87
24.06
23.85
23.26
22.27
20.89
19.17
17.22
15.22
13.37
11.85
10.76
10.03
9.49
8.84
7.88
6.46
4.62
2.49
0.22
-2.08
-4.44
-6.97
-9.85
-13.28
-17.38
-22.00
-26.75
-30.89
-33.56
-34.03
-31.94
-27.47
-21.26
-14.18
-7.03
-0.36
5.61
10.86
15.40
19.24
22.30
24.48
25.79
26.32
26.26
25.79
25.08
24.18
23.09
21.75
20.15
18.36
16.55
14.96
13.73
12.89
12.28
11.60
10.55
8.95
6.76
4.13
1.29
-1.54
-4.22
-6.73
-9.15
-11.60
-14.22
-17.10
-20.33
-23.91
-27.72
-31.50
-34.80
-37.08
-37.83
-36.80
-34.03
-29.89
-24.91
-19.59
-14.23
-8.99
-3.91
0.92
5.25
8.79
11.28
12.67
13.15
13.07
12.82
12.69
12.80
13.13
13.60
14.11
14.63
15.09
15.45
15.56
15.27
14.40
12.88
10.72
8.06
5.12
2.13
-0.76
-3.50
-6.15
-8.85
-11.83
-15.25
-19.09
-23.05
-26.51
-28.61
-28.60
-26.06
-21.14
-14.56
-7.35
-0.51
5.31
9.87
13.33
16.02
18.22
20.06
21.55
22.56
23.04
22.99
22.53
21.81
20.97
20.02
18.90
17.47
15.70
13.69
11.73
10.14
9.13
8.67
8.45
8.04
7.02
5.13
2.44
-0.77
-4.08
-7.11
-9.66
-11.82
-13.89
-16.30
-19.48
-23.69
-28.95
-34.91
-40.79
-45.56
-48.10
-47.60
-43.78
-37.04
-28.32
-18.78
-9.44
-1.01
6.17
12.02
16.55
19.85
22.05
23.37
24.09
24.50
24.78
24.93
24.80
24.18
22.94
21.11
18.92
16.72
14.88
13.61
12.93
12.66
12.54
12.30
11.77
10.86
9.51
7.65
5.27
2.43
-0.66
-3.72
-6.50
-8.90
-11.08
-13.36
-16.08
-19.47
-23.44
-27.50
-30.90
-32.81
-32.57
-29.93
-25.07
-18.58
-11.23
-3.76
3.26
9.46
14.61
18.57
21.25
22.69
23.08
22.74
22.03
21.17
20.23
19.11
17.70
15.94
13.95
11.95
10.17
8.83
7.96
7.46
7.09
6.56
5.59
4.04
1.98
-0.32
-2.51
-4.31
-5.64
-6.73
-7.99
-9.87
-12.63
-16.29
-20.63
-25.18
-29.36
-32.46
-33.79
-32.85
-29.46
-23.88
-16.79
-9.05
-1.50
5.30
11.11
15.92
19.80
22.75
24.69
25.53
25.30
24.19
22.51
20.60
18.71
16.96
15.36
13.86
12.42
11.01
9.65
8.37
7.17
5.98
4.75
3.40
1.86
0.10
-1.84
-3.88
-5.87
-7.71
-9.39
-11.00
-12.77
-14.96
-17.73
-21.07
-24.70
-28.12
-30.62
-31.57
-30.53
-27.43
-22.56
-16.52
-10.02
-3.74
1.87
6.53
10.13
12.69
14.26
14.94
14.90
14.30
13.33
12.14
10.82
9.41
7.95
6.46
4.99
3.60
2.32
1.13
-0.02
-1.19
-2.41
-3.66
-4.88
-6.04
-7.13
-8.25
-9.53
-11.12
-13.13
-15.64
-18.62
-21.92
-25.18
-27.85
-29.26
-28.81
-26.17
-21.48
-15.29
-8.41
-1.68
4.28
9.16
12.94
15.69
17.50
18.40
18.44
17.73
16.49
14.96
13.36
11.77
10.17
8.51
6.81
5.22
3.86
2.79
1.90
0.94
-0.36
-2.16
-4.42
-6.97
-9.57
-12.03
-14.24
-16.23
-18.13
-20.21
-22.78
-26.09
-30.11
-34.42
-38.23
-40.49
-40.34
-37.34
-31.70
-24.17
-15.79
-7.57
-0.26
5.76
10.43
13.90
16.41
18.18
19.38
20.08
20.28
19.95
19.09
17.75
16.03
14.12
12.26
10.62
9.35
8.41
7.65
6.81
5.63
3.94
1.75
-0.78
-3.42
-5.97
-8.32
-10.54
-12.83
-15.50
-18.84
-23.04
-27.94
-33.02
-37.38
-39.98
-39.95
-36.93
-31.21
-23.58
-15.11
-6.77
0.79
7.28
12.70
17.16
20.75
23.48
25.36
26.38
26.63
26.20
25.23
23.84
22.16
20.28
18.34
16.43
14.64
13.01
11.49
10.00
8.40
6.55
4.38
1.85
-0.95
-3.89
-6.77
-9.48
-12.06
-14.74
-17.90
-21.87
-26.73
-32.10
-37.10
-40.61
-41.56
-39.35
-34.01
-26.17
-16.81
-6.98
2.48
11.03
18.35
24.27
28.66
31.51
32.86
32.96
32.12
30.74
29.15
27.56
26.03
24.50
22.95
21.42
20.04
19.00
18.36
17.95
17.41
16.33
14.37
11.49
7.91
4.02
0.21
-3.25
-6.27
-8.94
-11.46
-14.14
-17.35
-21.35
-26.18
-31.42
-36.23
-39.55
-40.40
-38.31
-33.41
-26.38
-18.15
-9.57
-1.25
6.42
13.22
18.94
23.39
26.46
28.24
29.02
29.18
29.04
28.76
28.32
27.54
26.30
24.54
22.41
20.16
18.05
16.31
15.01
14.06
13.21
12.13
10.52
8.17
5.14
1.67
-1.87
-5.13
-7.95
-10.40
-12.82
-15.65
-19.32
-24.00
-29.49
-35.11
-39.81
-42.46
-42.19
-38.72
-32.45
-24.32
-15.50
-6.99
0.61
7.10
12.53
17.04
20.64
23.28
24.93
25.61
25.47
24.75
23.63
22.21
20.49
18.46
16.16
13.76
11.48
9.55
8.03
6.83
5.69
4.35
2.63
0.54
-1.73
-3.93
-5.84
-7.39
-8.71
-10.13
-12.05
-14.88
-18.82
-23.72
-29.03
-33.79
-36.86
-37.24
-34.35
-28.33
-19.93
-10.36
-0.86
7.63
14.61
20.04
24.11
27.08
29.12
30.37
30.93
30.92
30.47
29.66
28.48
26.90
24.87
22.44
19.77
17.14
14.83
13.03
11.78
10.96
10.28
9.38
7.93
5.73
2.85
-0.50
-3.96
-7.30
-10.48
-13.70
-17.31
-21.58
-26.55
-31.91
-36.99
-40.95
-42.94
-42.38
-39.10
-33.39
-25.89
-17.45
-8.85
-0.66
6.79
13.34
18.92
23.43
26.77
28.89
29.84
29.81
29.04
27.80
26.28
24.61
22.87
21.11
19.46
18.03
16.90
16.05
15.28
14.29
12.77
10.57
7.72
4.44
1.06
-2.16
-5.02
-7.56
-9.91
-12.40
-15.40
-19.22
-23.90
-29.07
-33.90
-37.32
-38.37
-36.54
-31.98
-25.41
-17.77
-9.94
-2.50
4.30
10.36
15.53
19.65
22.51
24.06
24.48
24.12
23.37
22.46
21.44
20.21
18.65
16.78
14.80
12.98
11.51
10.40
9.46
8.36
6.83
4.82
2.47
0.06
-2.17
-4.14
-5.93
-7.80
-10.02
-12.84
-16.43
-20.80
-25.71
-30.61
-34.65
-36.83
-36.38
-32.97
-26.94
-19.21
-10.89
-3.01
3.83
9.45
13.93
17.47
20.18
22.05
23.00
22.99
22.08
20.45
18.39
16.23
14.25
12.65
11.42
10.42
9.44
8.31
6.95
5.44
3.91
2.43
1.01
-0.51
-2.31
-4.55
-7.32
-10.56
-14.22
-18.27
-22.71
-27.41
-32.04
-35.94
-38.23
-38.13
-35.18
-29.52
-21.84
-13.18
-4.60
3.12
9.58
14.75
18.77
21.78
23.82
24.87
24.94
24.16
22.75
21.03
19.21
17.42
15.64
13.81
11.97
10.22
8.69
7.43
6.37
5.29
3.95
2.18
-0.04
-2.59
-5.29
-7.99
-10.66
-13.40
-16.39
-19.87
-23.94
-28.46
-32.91
-36.46
-38.17
-37.28
-33.51
-27.19
-19.20
-10.62
-2.42
4.74
10.64
15.32
18.95
21.68
23.59
24.76
25.28
25.29
24.94
24.29
23.35
22.10
20.48
18.49
16.24
13.93
11.74
9.80
8.08
6.47
4.76
2.78
0.50
-1.98
-4.48
-6.89
-9.22
-11.66
-14.47
-17.87
-21.86
-26.17
-30.20
-33.17
-34.33
-33.13
-29.43
-23.53
-16.13
-8.09
-0.25
6.84
12.89
17.81
21.66
24.42
26.13
26.83
26.67
25.89
24.70
23.30
21.76
20.10
18.35
16.54
14.75
13.02
11.36
9.72
8.01
6.18
4.18
2.04
-0.20
-2.46
-4.72
-7.01
-9.43
-12.17
-15.39
-19.20
-23.48
-27.84
-31.66
-34.15
-34.58
-32.53
-28.03
-21.63
-14.20
-6.71
0.10
5.84
10.46
14.09
16.91
19.00
20.35
20.98
20.90
20.23
19.12
17.71
16.15
14.53
12.93
11.37
9.88
8.43
6.98
5.50
3.95
2.31
0.56
-1.32
-3.33
-5.49
-7.78
-10.26
-13.00
-16.13
-19.72
-23.69
-27.70
-31.14
-33.23
-33.29
-30.94
-26.33
-20.07
-13.00
-5.93
0.57
6.28
11.22
15.49
19.10
21.95
23.83
24.64
24.35
23.14
21.29
19.14
16.96
14.95
13.20
11.75
10.59
9.63
8.72
7.69
6.37
4.67
2.60
0.29
-2.10
-4.47
-6.77
-9.09
-11.55
-14.38
-17.76
-21.76
-26.25
-30.74
-34.46
-36.47
-36.02
-32.79
-27.09
-19.72
-11.73
-4.05
2.75
8.47
13.19
17.07
20.17
22.43
23.76
24.16
23.75
22.76
21.50
20.17
18.85
17.52
16.05
14.40
12.58
10.71
8.91
7.24
5.62
3.92
2.05
-0.04
-2.27
-4.53
-6.79
-9.15
-11.83
-15.05
-18.90
-23.18
-27.36
-30.64
-32.23
-31.55
-28.46
-23.28
-16.69
-9.53
-2.53
3.81
9.27
13.78
17.37
20.06
21.89
22.89
23.17
22.87
22.11
21.01
19.63
18.03
16.28
14.48
12.76
11.20
9.82
8.53
7.21
5.69
3.90
1.83
-0.40
-2.63
-4.73
-6.65
-8.49
-10.48
-12.88
-15.92
-19.67
-23.96
-28.27
-31.86
-33.89
-33.70
-31.04
-26.16
-19.72
-12.57
-5.49
1.00
6.66
11.38
15.15
17.95
19.81
20.83
21.20
21.15
20.85
20.36
19.66
18.68
17.39
15.83
14.12
12.35
10.63
9.01
7.51
6.08
4.60
2.97
1.10
-1.02
-3.34
-5.77
-8.23
-10.69
-13.19
-15.84
-18.77
-22.02
-25.45
-28.68
-31.10
-32.04
-30.99
-27.79
-22.72
-16.41
-9.63
-3.08
2.82
7.88
12.08
15.43
17.90
19.50
20.29
20.44
20.15
19.57
18.75
17.66
16.26
14.62
12.89
11.29
9.99
9.02
8.25
7.45
6.42
5.03
3.32
1.39
-0.65
-2.73
-4.88
-7.14
-9.54
-12.12
-14.92
-17.97
-21.31
-24.84
-28.22
-30.90
-32.16
-31.42
-28.42
-23.41
-17.05
-10.16
-3.53
2.41
7.47
11.70
15.14
17.77
19.49
20.23
20.08
19.31
18.28
17.28
16.41
15.58
14.60
13.36
11.87
10.35
9.02
8.00
7.22
6.47
5.48
4.04
2.12
-0.14
-2.55
-4.87
-6.98
-8.87
-10.70
-12.75
-15.32
-18.61
-22.57
-26.88
-30.89
-33.78
-34.80
-33.49
-29.83
-24.23
-17.45
-10.30
-3.45
2.71
8.00
12.36
15.73
18.05
19.28
19.56
19.17
18.49
17.87
17.44
17.18
16.90
16.39
15.49
14.24
12.76
11.30
10.02
8.98
8.06
7.00
5.56
3.63
1.25
-1.36
-3.99
-6.48
-8.83
-11.12
-13.42
-15.82
-18.41
-21.26
-24.41
-27.67
-30.62
-32.60
-32.92
-31.16
-27.34
-21.95
-15.70
-9.28
-3.09
2.70
8.03
12.79
16.72
19.48
20.87
20.97
20.15
18.95
17.84
17.06
16.55
16.09
15.43
14.49
13.36
12.24
11.33
10.68
10.14
9.45
8.28
6.42
3.90
0.94
-2.09
-4.86
-7.19
-9.13
-10.94
-12.96
-15.50
-18.77
-22.75
-27.17
-31.50
-35.02
-36.94
-36.62
-33.83
-28.80
-22.15
-14.73
-7.35
-0.57
5.29
10.14
14.01
16.96
19.10
20.52
21.34
21.67
21.64
21.28
20.62
19.60
18.16
16.31
14.18
12.03
10.13
8.72
7.78
7.11
6.37
5.23
3.53
1.35
-1.07
-3.47
-5.70
-7.76
-9.81
-12.07
-14.73
-17.92
-21.66
-25.77
-29.85
-33.25
-35.22
-35.07
-32.52
-27.75
-21.40
-14.33
-7.37
-1.06
4.39
8.96
12.75
15.75
17.94
19.29
19.81
19.62
18.90
17.82
16.51
15.09
13.65
12.30
11.18
10.39
9.97
9.77
9.51
8.84
7.48
5.38
2.72
-0.14
-2.80
-5.02
-6.76
-8.20
-9.72
-11.71
-14.50
-18.18
-22.46
-26.70
-29.97
-31.41
-30.43
-26.98
-21.52
-14.86
-7.86
-1.20
4.76
9.91
14.24
17.75
20.36
21.97
22.53
22.13
20.96
19.32
17.47
15.61
13.82
12.13
10.55
9.16
8.06
7.31
6.80
6.28
5.45
4.07
2.11
-0.25
-2.72
-5.06
-7.21
-9.28
-11.54
-14.25
-17.56
-21.47
-25.68
-29.72
-32.91
-34.57
-34.18
-31.50
-26.74
-20.39
-13.16
-5.71
1.41
7.84
13.38
17.88
21.27
23.55
24.79
25.17
24.89
24.12
22.99
21.56
19.93
18.17
16.41
14.78
13.35
12.16
11.17
10.24
9.18
7.78
5.87
3.44
0.63
-2.32
-5.16
-7.76
-10.16
-12.56
-15.20
-18.31
-22.00
-26.26
-30.88
-35.45
-39.32
-41.73
-41.99
-39.72
-34.99
-28.35
-20.59
-12.50
-4.67
2.57
9.07
14.75
19.46
23.07
25.51
26.84
27.30
27.22
26.87
26.40
25.82
25.04
23.95
22.56
20.94
19.26
17.67
16.22
14.86
13.38
11.60
9.39
6.77
3.91
1.01
-1.76
-4.35
-6.82
-9.35
-12.12
-15.33
-19.16
-23.68
-28.74
-33.86
-38.22
-40.83
-40.89
-38.08
-32.72
-25.63
-17.81
-10.06
-2.84
3.76
9.75
15.09
19.58
23.03
25.34
26.64
27.19
27.30
27.14
26.75
26.04
24.93
23.41
21.60
19.70
17.96
16.55
15.53
14.80
14.09
13.05
11.41
9.06
6.13
2.90
-0.30
-3.26
-5.96
-8.54
-11.26
-14.34
-17.98
-22.20
-26.90
-31.73
-36.08
-39.16
-40.22
-38.78
-34.81
-28.78
-21.45
-13.64
-5.96
1.24
7.76
13.50
18.30
22.03
24.63
26.16
26.83
26.89
26.53
25.85
24.89
23.65
22.17
20.55
18.91
17.36
15.93
14.61
13.29
11.84
10.16
8.19
5.94
3.48
0.93
-1.60
-4.03
-6.39
-8.77
-11.33
-14.29
-17.81
-21.95
-26.51
-30.98
-34.63
-36.63
-36.37
-33.62
-28.64
-22.06
-14.64
-7.08
0.13
6.66
12.31
16.91
20.35
22.59
23.74
24.03
23.71
22.99
22.00
20.75
19.26
17.58
15.84
14.21
12.86
11.83
11.04
10.32
9.41
8.15
6.50
4.53
2.39
0.22
-1.96
-4.18
-6.54
-9.17
-12.15
-15.58
-19.47
-23.69
-27.90
-31.49
-33.70
-33.86
-31.62
-27.10
-20.91
-13.81
-6.58
0.28
6.53
12.07
16.80
20.53
23.07
24.33
24.41
23.63
22.41
21.11
19.91
18.83
17.76
16.59
15.26
13.88
12.57
11.45
10.51
9.59
8.47
6.92
4.89
2.44
-0.23
-2.91
-5.47
-7.90
-10.27
-12.75
-15.54
-18.85
-22.83
-27.47
-32.40
-36.91
-40.04
-40.86
-38.87
-34.20
-27.53
-19.82
-11.97
-4.54
2.26
8.40
13.84
18.41
21.88
24.12
25.23
25.52
25.39
25.12
24.77
24.21
23.28
21.89
20.15
18.28
16.55
15.13
14.01
13.04
11.99
10.64
8.86
6.62
4.01
1.21
-1.58
-4.20
-6.59
-8.85
-11.15
-13.76
-16.93
-20.82
-25.42
-30.43
-35.23
-38.99
-40.81
-40.06
-36.60
-30.86
-23.63
-15.83
-8.20
-1.14
5.21
10.81
15.62
19.52
22.42
24.30
25.24
25.40
24.98
24.13
22.95
21.55
19.98
18.29
16.54
14.79
13.12
11.62
10.33
9.19
8.05
6.66
4.84
2.50
-0.26
-3.18
-5.92
-8.27
-10.23
-11.99
-13.90
-16.29
-19.36
-23.12
-27.37
-31.64
-35.32
-37.65
-38.01
-36.05
-31.80
-25.73
-18.53
-10.98
-3.69
2.92
8.59
13.17
16.63
19.00
20.48
21.33
21.78
21.94
21.78
21.17
20.03
18.44
16.58
14.75
13.14
11.82
10.72
9.68
8.52
7.07
5.21
2.89
0.10
-3.06
-6.37
-9.58
-12.46
-14.95
-17.20
-19.53
-22.25
-25.48
-28.96
-32.09
-34.03
-34.03
-31.68
-27.08
-20.77
-13.51
-6.06
1.03
7.47
13.13
17.95
21.85
24.73
26.52
27.31
27.29
26.67
25.66
24.34
22.74
20.88
18.82
16.70
14.71
13.01
11.64
10.52
9.45
8.18
6.53
4.39
1.83
-1.00
-3.92
-6.81
-9.63
-12.53
-15.75
-19.56
-24.16
-29.49
-35.14
-40.27
-43.86
-44.95
-42.97
-37.99
-30.62
-21.86
-12.67
-3.79
4.35
11.56
17.71
22.70
26.44
28.92
30.29
30.79
30.67
30.07
29.05
27.59
25.72
23.55
21.33
19.34
17.82
16.83
16.25
15.76
15.03
13.79
11.96
9.59
6.86
3.91
0.86
-2.25
-5.39
-8.59
-11.86
-15.32
-19.16
-23.53
-28.38
-33.36
-37.74
-40.59
-41.11
-38.96
-34.42
-28.33
-21.78
-15.73
-10.68
-6.63
-3.23
-0.07
3.09
6.28
9.34
12.11
14.49
16.48
18.07
19.26
19.99
20.22
19.97
19.31
18.36
17.22
15.96
14.59
13.06
11.33
9.35
7.10
4.59
1.90
-0.90
-3.79
-6.84
-10.21
-14.01
-18.16
-22.24
-25.52
-27.17
-26.59
-23.65
-18.75
-12.65
-6.15
0.18
6.07
11.43
16.22
20.26
23.29
25.08
25.65
25.22
24.18
22.89
21.52
20.06
18.42
16.53
14.48
12.49
10.81
9.60
8.86
8.36
7.79
6.78
5.09
2.66
-0.37
-3.73
-7.09
-10.24
-13.13
-15.88
-18.77
-22.08
-25.96
-30.30
-34.66
-38.29
-40.33
-40.05
-37.13
-31.84
-24.94
-17.43
-10.27
-4.05
1.02
5.07
8.29
10.83
12.71
13.85
14.24
14.00
13.33
12.47
11.61
10.80
9.98
9.06
7.98
6.74
5.44
4.20
3.07
2.09
1.21
0.41
-0.29
-0.85
-1.24
-1.51
-1.80
-2.34
-3.37
-5.14
-7.78
-11.20
-15.08
-18.80
-21.54
-22.46
-20.98
-16.95
-10.75
-3.18
4.82
12.41
19.02
24.41
28.60
31.68
33.75
34.92
35.27
34.92
34.01
32.70
31.11
29.32
27.34
25.18
22.87
20.48
18.17
16.09
14.31
12.80
11.43
10.03
8.47
6.69
4.71
2.62
0.46
-1.74
-4.00
-6.36
-8.89
-11.71
-14.97
-18.74
-22.86
-26.91
-30.17
-31.89
-31.50
-28.89
-24.42
-18.80
-12.82
-7.12
-2.05
2.29
5.92
8.84
11.04
12.48
13.15
13.15
12.65
11.86
10.96
10.04
9.10
8.10
7.00
5.81
4.56
3.33
2.17
1.05
-0.11
-1.43
-2.98
-4.73
-6.59
-8.47
-10.38
-12.45
-14.93
-18.03
-21.75
-25.84
-29.69
-32.52
-33.58
-32.41
-28.96
-23.59
-16.94
-9.69
-2.47
4.25
10.17
15.05
18.78
21.30
22.66
23.00
22.50
21.36
19.72
17.71
15.47
13.17
10.99
9.14
7.70
6.62
5.71
4.67
3.22
1.20
-1.33
-4.12
-6.82
-9.15
-11.07
-12.75
-14.55
-16.88
-20.03
-24.02
-28.58
-33.10
-36.72
-38.55
-37.89
-34.51
-28.70
-21.26
-13.18
-5.36
1.64
7.61
12.61
16.80
20.26
23.01
25.01
26.24
26.74
26.58
25.85
24.65
23.07
21.20
19.13
16.98
14.81
12.66
10.45
8.04
5.32
2.28
-0.93
-4.03
-6.73
-8.84
-10.38
-11.65
-13.05
-15.01
-17.81
-21.48
-25.73
-29.93
-33.23
-34.76
-33.87
-30.37
-24.56
-17.18
-9.10
-1.12
6.19
12.53
17.77
21.86
24.77
26.49
27.10
26.76
25.72
24.27
22.60
20.85
19.04
17.15
15.16
13.13
11.17
9.40
7.88
6.51
5.14
3.59
1.77
-0.28
-2.41
-4.46
-6.37
-8.21
-10.18
-12.54
-15.52
-19.24
-23.54
-27.98
-31.81
-34.16
-34.25
-31.71
-26.68
-19.80
-11.99
-4.19
2.87
8.78
13.40
16.83
19.25
20.87
21.84
22.27
22.21
21.72
20.83
19.64
18.24
16.70
15.07
13.35
11.54
9.71
7.97
6.41
5.04
3.81
2.59
1.30
-0.12
-1.64
-3.26
-5.00
-6.97
-9.27
-12.02
-15.26
-18.98
-22.96
-26.76
-29.69
-31.00
-30.07
-26.68
-21.15
-14.26
-6.97
-0.11
5.83
10.70
14.56
17.48
19.46
20.48
20.57
19.94
18.88
17.63
16.30
14.87
13.25
11.44
9.57
7.85
6.48
5.53
4.86
4.22
3.37
2.20
0.75
-0.86
-2.47
-4.05
-5.65
-7.46
-9.67
-12.41
-15.73
-19.47
-23.31
-26.71
-29.02
-29.57
-27.93
-24.06
-18.36
-11.59
-4.65
1.75
7.18
11.53
14.87
17.31
18.95
19.88
20.20
20.03
19.50
18.64
17.46
15.93
14.14
12.26
10.55
9.22
8.31
7.66
7.01
6.11
4.83
3.22
1.43
-0.37
-2.10
-3.74
-5.38
-7.17
-9.24
-11.71
-14.66
-17.93
-21.19
-23.83
-25.15
-24.54
-21.76
-17.04
-11.00
-4.52
1.63
6.90
11.07
14.17
16.32
17.68
18.29
18.21
17.48
16.21
14.53
12.62
10.67
8.86
7.27
5.91
4.70
3.49
2.21
0.81
-0.63
-1.98
-3.15
-4.18
-5.19
-6.35
-7.78
-9.50
-11.45
-13.59
-15.98
-18.70
-21.67
-24.54
-26.65
-27.22
-25.68
-21.93
-16.44
-10.10
-3.85
1.61
5.97
9.29
11.74
13.48
14.52
14.79
14.27
13.05
11.29
9.18
6.89
4.56
2.31
0.32
-1.23
-2.17
-2.42
-2.05
-1.30
-0.52
-0.09
-0.32
-1.41
-3.37
-6.14
-9.63
-13.79
-18.52
-23.58
-28.43
-32.23
-34.01
-33.02
-29.03
-22.54
-14.54
-6.24
1.38
7.77
12.81
16.62
19.33
20.97
21.48
20.89
19.36
17.21
14.81
12.49
10.41
8.57
6.90
5.25
3.55
1.75
-0.10
-1.93
-3.65
-5.18
-6.50
-7.64
-8.79
-10.17
-12.09
-14.82
-18.53
-23.13
-28.20
-33.01
-36.55
-37.87
-36.34
-31.87
-25.04
-16.85
-8.44
-0.76
5.66
10.70
14.52
17.33
19.32
20.55
21.04
20.85
20.11
19.00
17.70
16.37
15.04
13.69
12.23
10.59
8.79
6.88
5.03
3.39
2.00
0.80
-0.40
-1.88
-3.87
-6.53
-9.89
-13.94
-18.53
-23.37
-27.93
-31.48
-33.18
-32.42
-29.00
-23.28
-16.08
-8.39
-1.06
5.38
10.81
15.31
18.98
21.83
23.78
24.71
24.61
23.66
22.18
20.54
18.98
17.60
16.28
14.87
13.25
11.42
9.50
7.64
5.92
4.36
2.86
1.29
-0.44
-2.39
-4.60
-7.11
-10.03
-13.49
-17.53
-22.02
-26.52
-30.32
-32.59
-32.66
-30.25
-25.64
-19.56
-12.86
-6.28
-0.20
5.27
10.19
14.56
18.21
20.86
22.33
22.62
21.93
20.63
19.09
17.55
16.06
14.56
12.95
11.19
9.34
7.53
5.86
4.34
2.83
1.14
-0.94
-3.51
-6.49
-9.74
-13.16
-16.77
-20.73
-25.20
-30.09
-34.94
-38.87
-40.95
-40.44
-37.12
-31.35
-23.93
-15.73
-7.55
0.11
6.93
12.76
17.51
21.13
23.60
24.96
25.26
24.62
23.23
21.38
19.43
17.73
16.46
15.56
14.79
13.78
12.27
10.21
7.74
5.08
2.39
-0.30
-3.09
-6.10
-9.43
-13.11
-17.17
-21.72
-26.88
-32.63
-38.61
-43.97
-47.57
-48.30
-45.56
-39.53
-31.06
-21.36
-11.53
-2.28
6.15
13.76
20.56
26.42
31.14
34.57
36.72
37.78
37.97
37.45
36.30
34.54
32.29
29.80
27.43
25.50
24.14
23.19
22.27
20.94
18.89
16.04
12.57
8.79
5.00
1.37
-2.06
-5.43
-8.98
-12.97
-17.63
-23.00
-28.78
-34.28
-38.52
-40.46
-39.35
-34.98
-27.76
-18.60
-8.64
1.10
9.90
17.40
23.54
28.38
31.99
34.40
35.69
35.95
35.41
34.31
32.93
31.46
30.00
28.55
27.13
25.78
24.55
23.50
22.58
21.61
20.34
18.48
15.86
12.48
8.57
4.48
0.60
-2.80
-5.72
-8.38
-11.18
-14.61
-18.99
-24.34
-30.34
-36.25
-41.08
-43.81
-43.66
-40.37
-34.22
-26.03
-16.82
-7.57
1.03
8.61
15.02
20.24
24.22
26.88
28.22
28.35
27.56
26.21
24.61
22.95
21.25
19.41
17.34
15.07
12.78
10.70
8.98
7.56
6.13
4.25
1.51
-2.25
-6.90
-12.04
-17.17
-21.87
-25.95
-29.49
-32.83
-36.43
-40.82
-46.39
-53.23
-61.00
-68.85
-75.52
-79.58
-79.89
-75.93
-68.03
-57.25
-45.00
-32.65
-21.10
-10.78
-1.74
6.07
12.69
18.05
22.15
25.10
27.15
28.65
29.84
30.85
31.64
32.19
32.55
32.89
33.47
34.42
35.69
36.99
37.89
37.98
37.08
35.29
32.96
30.48
28.14
26.01
23.92
21.56
18.57
14.69
9.88
4.48
-0.79
-4.95
-7.04
-6.49
-3.34
1.76
7.87
14.15
20.14
25.75
31.07
36.06
40.43
43.72
45.53
45.77
44.66
42.65
40.19
37.64
35.24
33.20
31.73
31.02
31.09
31.73
32.40
32.39
31.01
27.81
22.75
16.18
8.74
1.12
-6.12
-12.71
-18.65
-24.10
-29.38
-34.81
-40.56
-46.47
-52.02
-56.25
-58.09
-56.70
-51.88
-44.18
-34.77
-25.04
-16.13
-8.71
-2.99
1.13
3.79
5.11
5.21
4.29
2.71
0.88
-0.78
-2.02
-2.73
-2.99
-3.02
-3.12
-3.59
-4.62
-6.24
-8.27
-10.43
-12.43
-14.10
-15.47
-16.70
-18.06
-19.88
-22.51
-26.24
-31.11
-36.76
-42.32
-46.58
-48.37
-46.97
-42.44
-35.54
-27.43
-19.23
-11.67
-5.01
0.72
5.56
9.39
11.97
13.04
12.47
10.32
6.87
2.55
-2.04
-6.30
-9.61
-11.53
-11.78
-10.35
-7.45
-3.46
1.10
5.71
9.86
13.12
15.20
15.95
15.37
13.58
10.82
7.46
3.95
0.88
-1.13
-1.55
-0.11
3.09
7.63
12.86
18.16
23.07
27.39
31.09
34.24
36.82
38.72
39.75
39.76
38.76
36.92
34.54
32.02
29.69
27.72
26.08
24.60
23.02
21.12
18.82
16.18
13.32
10.38
7.42
4.42
1.34
-1.88
-5.26
-8.79
-12.44
-16.11
-19.58
-22.47
-24.26
-24.39
-22.51
-18.61
-13.07
-6.61
0.01
6.14
11.34
15.37
18.11
19.45
19.35
17.94
15.51
12.53
9.53
6.91
4.86
3.33
2.09
0.93
-0.29
-1.60
-2.91
-4.12
-5.13
-5.93
-6.63
-7.40
-8.50
-10.19
-12.66
-15.85
-19.43
-22.74
-24.96
-25.34
-23.45
-19.31
-13.41
-6.50
0.57
7.09
12.49
16.46
18.82
19.56
18.83
16.94
14.33
11.42
8.59
6.02
3.70
1.56
-0.55
-2.67
-4.78
-6.77
-8.53
-10.03
-11.32
-12.53
-13.86
-15.52
-17.70
-20.48
-23.75
-27.17
-30.12
-31.81
-31.56
-28.97
-24.13
-17.57
-10.14
-2.71
3.99
9.52
13.67
16.45
17.95
18.33
17.77
16.52
14.85
12.97
11.02
9.01
6.86
4.46
1.76
-1.17
-4.12
-6.81
-8.98
-10.52
-11.51
-12.19
-12.97
-14.23
-16.27
-19.09
-22.40
-25.57
-27.79
-28.31
-26.69
-22.91
-17.40
-10.85
-4.00
2.57
8.47
13.49
17.51
20.41
22.12
22.63
22.04
20.59
18.55
16.21
13.78
11.34
8.87
6.33
3.73
1.18
-1.12
-2.99
-4.36
-5.34
-6.23
-7.43
-9.28
-12.01
-15.56
-19.63
-23.65
-26.89
-28.63
-28.33
-25.80
-21.26
-15.26
-8.50
-1.67
4.71
10.28
14.82
18.11
19.99
20.39
19.42
17.45
14.94
12.39
10.14
8.30
6.79
5.42
4.06
2.64
1.24
-0.01
-1.01
-1.78
-2.42
-3.17
-4.28
-6.02
-8.63
-12.20
-16.62
-21.49
-26.10
-29.55
-30.94
-29.72
-25.85
-19.83
-12.55
-4.91
2.37
8.95
14.75
19.81
24.09
27.38
29.39
29.89
28.83
26.44
23.15
19.51
15.99
12.89
10.32
8.16
6.22
4.30
2.31
0.20
-1.94
-4.08
-6.21
-8.44
-10.91
-13.78
-17.15
-21.07
-25.49
-30.30
-35.17
-39.60
-42.88
-44.27
-43.26
-39.74
-34.12
-27.09
-19.41
-11.65
-4.10
3.06
9.61
15.22
19.54
22.33
23.64
23.73
22.92
21.48
19.48
16.89
13.71
10.09
6.37
3.07
0.68
-0.46
-0.34
0.69
1.99
2.80
2.41
0.40
-3.30
-8.35
-14.06
-19.54
-23.85
-26.18
-26.08
-23.49
-18.80
-12.70
-6.01
0.46
6.12
10.56
13.55
15.04
15.06
13.78
11.47
8.51
5.39
2.57
0.46
-0.75
-1.09
-0.78
-0.17
0.43
0.79
0.82
0.57
0.11
-0.59
-1.67
-3.42
-6.13
-9.96
-14.77
-20.17
-25.53
-30.18
-33.60
-35.46
-35.62
-34.08
-31.03
-26.79
-21.82
-16.61
-11.60
-7.05
-3.03
0.55
3.82
6.98
10.21
13.74
17.76
22.36
27.36
32.37
36.81
40.17
42.11
42.59
41.75
39.77
36.77
32.81
27.90
22.14
15.68
8.71
1.40
-6.15
-13.78
-21.14
-27.66
-32.60
-35.26
-35.16
-32.22
-26.82
-19.66
-11.60
-3.48
4.01
10.41
15.43
18.95
20.95
21.51
20.77
18.92
16.22
12.87
9.10
5.11
1.15
-2.51
-5.56
-7.79
-9.17
-9.93
-10.51
-11.48
-13.39
-16.55
-20.85
-25.76
-30.32
-33.39
-33.99
-31.56
-26.21
-18.63
-9.84
-0.84
7.63
15.19
21.71
27.12
31.28
33.99
35.17
34.89
33.47
31.35
28.90
26.34
23.67
20.78
17.60
14.23
10.93
8.09
6.05
5.01
4.86
5.21
5.47
4.95
3.14
-0.21
-4.91
-10.37
-15.64
-19.68
-21.62
-20.98
-17.77
-12.52
-6.06
0.66
6.84
11.97
15.85
18.55
20.29
21.34
21.90
22.10
21.98
21.50
20.67
19.52
18.15
16.61
14.90
12.91
10.54
7.79
4.81
1.88
-0.71
-2.81
-4.51
-6.16
-8.24
-11.23
-15.45
-20.93
-27.31
-33.81
-39.37
-42.89
-43.47
-40.69
-34.74
-26.36
-16.62
-6.62
2.74
10.94
17.74
23.15
27.22
29.98
31.43
31.62
30.74
29.11
27.13
25.20
23.49
22.00
20.52
18.87
16.95
14.80
12.59
10.43
8.32
6.06
3.39
-0.02
-4.34
-9.59
-15.51
-21.55
-26.93
-30.73
-32.15
-30.71
-26.42
-19.82
-11.82
-3.38
4.65
11.72
17.53
21.94
24.86
26.20
26.00
24.46
22.01
19.17
16.44
14.14
12.31
10.82
9.43
7.92
6.19
4.23
2.13
0.01
-2.01
-3.95
-5.88
-8.04
-10.70
-14.09
-18.28
-23.07
-27.91
-31.98
-34.37
-34.30
-31.39
-25.78
-18.09
-9.26
-0.26
8.13
15.40
21.30
25.77
28.75
30.21
30.22
28.97
26.80
24.16
21.47
18.99
16.81
14.83
12.91
11.02
9.25
7.80
6.86
6.47
6.47
6.56
6.38
5.64
4.19
1.96
-1.01
-4.65
-8.71
-12.71
-15.95
-17.62
-17.07
-14.09
-9.04
-2.79
3.61
9.25
13.54
16.32
17.70
17.90
17.09
15.47
13.22
10.58
7.82
5.21
2.92
0.99
-0.67
-2.19
-3.70
-5.25
-6.76
-8.14
-9.28
-10.19
-11.01
-12.01
-13.49
-15.69
-18.66
-22.17
-25.68
-28.45
-29.74
-28.99
-26.10
-21.38
-15.54
-9.39
-3.61
1.41
5.50
8.64
10.76
11.78
11.68
10.64
9.08
7.54
6.48
6.09
6.22
6.46
6.37
5.73
4.54
3.09
1.74
0.78
0.33
0.29
0.39
0.26
-0.42
-1.86
-4.03
-6.63
-9.13
-10.90
-11.37
-10.22
-7.50
-3.54
1.09
5.79
10.05
13.54
16.07
17.61
18.15
17.74
16.49
14.57
12.25
9.78
7.35
5.06
2.87
0.74
-1.38
-3.42
-5.24
-6.67
-7.57
-7.95
-7.94
-7.87
-8.14
-9.18
-11.27
-14.41
-18.21
-21.89
-24.51
-25.20
-23.51
-19.53
-13.87
-7.42
-1.07
4.52
9.04
12.39
14.58
15.63
15.56
14.40
12.31
9.59
6.66
3.90
1.59
-0.25
-1.80
-3.29
-4.90
-6.66
-8.35
-9.69
-10.42
-10.51
-10.17
-9.81
-9.95
-10.99
-13.11
-16.10
-19.37
-22.12
-23.49
-22.88
-20.12
-15.53
-9.77
-3.59
2.31
7.50
11.71
14.81
16.72
17.36
16.80
15.23
12.97
10.40
7.84
5.45
3.24
1.06
-1.22
-3.73
-6.44
-9.17
-11.65
-13.62
-14.90
-15.48
-15.52
-15.33
-15.28
-15.77
-17.16
-19.64
-23.25
-27.69
-32.38
-36.52
-39.26
-39.95
-38.30
-34.47
-28.89
-22.16
-14.83
-7.35
-0.11
6.46
11.90
15.79
17.88
18.25
17.37
15.94
14.72
14.23
14.66
15.85
17.41
18.82
19.64
19.58
18.54
16.57
13.89
10.75
7.37
3.90
0.36
-3.33
-7.27
-11.54
-15.99
-20.23
-23.62
-25.39
-24.96
-22.11
-17.16
-10.92
-4.41
1.49
6.29
9.93
12.65
14.69
16.21
17.20
17.60
17.41
16.72
15.69
14.45
13.04
11.40
9.48
7.28
4.93
2.70
0.84
-0.47
-1.22
-1.58
-1.79
-2.10
-2.71
-3.68
-4.99
-6.58
-8.43
-10.58
-13.11
-16.12
-19.62
-23.39
-26.97
-29.62
-30.58
-29.31
-25.65
-19.99
-13.09
-5.86
0.91
6.68
11.25
14.60
16.86
18.22
18.87
19.02
18.83
18.35
17.58
16.45
14.96
13.24
11.51
9.98
8.75
7.76
6.75
5.45
3.68
1.46
-0.95
-3.20
-5.00
-6.28
-7.23
-8.23
-9.75
-12.15
-15.51
-19.64
-24.00
-27.79
-30.17
-30.41
-28.18
-23.65
-17.39
-10.19
-2.86
4.03
10.13
15.30
19.44
22.46
24.27
24.88
24.40
23.04
21.07
18.73
16.24
13.79
11.53
9.54
7.82
6.28
4.78
3.19
1.43
-0.50
-2.52
-4.59
-6.64
-8.69
-10.82
-13.18
-15.98
-19.40
-23.45
-27.83
-31.91
-34.75
-35.46
-33.47
-28.80
-22.04
-14.17
-6.20
1.13
7.45
12.65
16.79
19.87
21.89
22.80
22.64
21.56
19.80
17.62
15.26
12.91
10.64
8.51
6.50
4.60
2.78
1.08
-0.48
-1.87
-3.16
-4.45
-5.91
-7.68
-9.89
-12.58
-15.79
-19.53
-23.69
-27.95
-31.72
-34.21
-34.61
-32.33
-27.28
-19.91
-11.08
-1.84
6.87
14.39
20.39
24.83
27.83
29.57
30.25
30.04
29.15
27.77
26.05
24.10
21.93
19.51
16.87
14.11
11.45
9.14
7.35
6.06
5.02
3.90
2.38
0.32
-2.21
-5.00
-7.88
-10.77
-13.78
-17.10
-20.97
-25.49
-30.57
-35.88
-40.81
-44.54
-46.18
-45.02
-40.76
-33.65
-24.46
-14.28
-4.19
5.03
12.97
19.58
24.92
29.02
31.86
33.44
33.88
33.46
32.53
31.33
29.93
28.18
25.91
23.05
19.84
16.70
14.12
12.41
11.56
11.23
10.89
10.05
8.43
6.03
3.03
-0.26
-3.61
-6.87
-10.02
-13.13
-16.33
-19.82
-23.83
-28.52
-33.82
-39.25
-43.89
-46.56
-46.22
-42.35
-35.20
-25.71
-15.14
-4.70
4.82
13.07
20.03
25.77
30.30
33.55
35.44
36.04
35.53
34.29
32.70
31.09
29.61
28.18
26.62
24.77
22.60
20.28
18.15
16.49
15.40
14.71
13.99
12.79
10.82
8.03
4.62
0.93
-2.75
-6.20
-9.34
-12.23
-15.04
-17.95
-21.21
-25.03
-29.56
-34.73
-40.16
-45.09
-48.45
-49.15
-46.41
-40.13
-30.93
-20.06
-8.93
1.28
9.95
16.99
22.67
27.32
31.06
33.86
35.57
36.13
35.62
34.30
32.50
30.53
28.60
26.77
25.02
23.32
21.62
19.97
18.44
17.06
15.82
14.59
13.23
11.59
9.60
7.29
4.72
1.97
-0.92
-3.95
-7.12
-10.42
-13.80
-17.24
-20.75
-24.47
-28.56
-33.15
-38.16
-43.20
-47.44
-49.84
-49.40
-45.56
-38.41
-28.75
-17.81
-6.91
2.91
11.07
17.48
22.33
25.89
28.40
30.00
30.78
30.85
30.35
29.43
28.21
26.74
24.98
22.94
20.71
18.46
16.43
14.81
13.68
12.94
12.41
11.85
11.03
9.77
7.92
5.39
2.19
-1.50
-5.41
-9.22
-12.73
-15.88
-18.80
-21.75
-25.02
-28.89
-33.47
-38.70
-44.19
-49.20
-52.75
-53.82
-51.66
-46.11
-37.64
-27.31
-16.40
-6.15
2.61
9.50
14.51
17.87
19.91
20.93
21.24
21.14
20.85
20.50
20.02
19.16
17.59
15.07
11.58
7.40
3.08
-0.84
-3.98
-6.33
-8.22
-10.24
-12.96
-16.74
-21.49
-26.75
-31.79
-35.84
-38.39
-39.37
-39.21
-38.70
-38.68
-39.78
-42.04
-44.82
-46.96
-47.13
-44.26
-37.92
-28.44
-16.72
-3.97
8.58
19.94
29.38
36.45
40.96
43.00
42.89
41.14
38.30
34.85
31.11
27.29
23.56
20.15
17.33
15.39
14.51
14.67
15.64
17.01
18.31
19.15
19.30
18.69
17.35
15.38
12.81
9.65
5.93
1.65
-3.09
-8.10
-13.04
-17.41
-20.50
-21.51
-19.82
-15.13
-7.73
1.62
11.84
21.90
31.03
38.87
45.36
50.60
54.71
57.69
59.57
60.35
60.08
58.92
57.06
54.74
52.24
49.83
47.69
45.88
44.28
42.67
40.80
38.47
35.61
32.24
28.48
24.45
20.25
15.96
11.64
7.27
2.74
-2.12
-7.50
-13.39
-19.47
-25.06
-29.20
-30.97
-29.81
-25.76
-19.47
-11.97
-4.41
2.27
7.54
11.25
13.53
14.62
14.73
13.96
12.39
10.11
7.33
4.40
1.68
-0.53
-2.16
-3.38
-4.49
-5.79
-7.42
-9.31
-11.18
-12.79
-14.01
-14.93
-15.80
-16.92
-18.51
-20.72
-23.62
-27.24
-31.50
-36.06
-40.29
-43.25
-44.00
-41.90
-36.91
-29.64
-21.12
-12.46
-4.55
2.12
7.40
11.28
13.77
14.88
14.66
13.28
11.05
8.37
5.65
3.16
1.07
-0.65
-2.09
-3.41
-4.75
-6.20
-7.80
-9.49
-11.23
-12.94
-14.63
-16.35
-18.26
-20.54
-23.39
-26.87
-30.93
-35.22
-39.20
-42.15
-43.35
-42.35
-39.09
-34.04
-28.03
-22.05
-16.87
-12.93
-10.23
-8.53
-7.53
-7.07
-7.13
-7.77
-9.07
-11.02
-13.57
-16.65
-20.12
-23.76
-27.22
-30.07
-31.90
-32.51
-31.96
-30.67
-29.24
-28.30
-28.35
-29.66
-32.18
-35.54
-38.98
-41.39
-41.60
-38.60
-31.96
-21.94
-9.47
4.14
17.61
29.99
40.79
49.88
57.33
63.21
67.52
70.24
71.44
71.37
70.40
68.98
67.45
65.90
64.18
61.99
59.04
55.18
50.51
45.24
39.64
33.91
28.22
22.66
17.32
12.22
7.32
2.47
-2.57
-8.04
-14.08
-20.59
-27.13
-32.95
-37.09
-38.65
-37.06
-32.28
-24.89
-15.93
-6.68
1.76
8.63
13.70
17.15
19.35
20.66
21.27
21.22
20.46
18.99
17.00
14.76
12.54
10.53
8.66
6.77
4.63
2.11
-0.75
-3.79
-6.82
-9.76
-12.61
-15.45
-18.41
-21.50
-24.72
-28.07
-31.60
-35.44
-39.63
-43.96
-47.85
-50.47
-51.04
-49.13
-44.93
-39.18
-32.97
-27.32
-22.98
-20.22
-18.91
-18.63
-18.82
-18.87
-18.34
-16.98
-14.80
-11.97
-8.74
-5.28
-1.61
2.37
6.79
11.78
17.42
23.84
31.15
39.47
48.72
58.59
68.44
77.44
84.84
90.12
93.15
94.14
93.51
91.72
89.20
86.34
83.48
80.92
78.80
77.05
75.35
73.22
70.22
66.10
60.90
54.91
48.55
42.22
36.25
30.80
25.88
21.45
17.39
13.65
10.20
7.06
4.28
1.87
-0.21
-2.06
-3.80
-5.49
-7.14
-8.67
-10.00
-11.12
-12.13
-13.16
-14.30
-15.56
-16.77
-17.74
-18.29
-18.41
-18.24
-18.01
-17.94
-18.14
-18.55
-19.04
-19.46
-19.72
-19.80
-19.71
-19.52
-19.22
-18.81
-18.30
-17.71
-17.10
-16.51
-15.97
-15.49
-15.06
-14.64
-14.23
-13.82
-13.41
-12.99
-12.58
-12.14
-11.68
-11.18
-10.63
-10.07
-9.52
-9.06
-8.73
-8.56
-8.55
-8.67
-8.89
-9.19
-9.62
-10.19
-10.89
-11.66
-12.44
-13.12
-13.65
-13.97
-14.07
-13.97
-13.73
-13.46
-13.26
-13.22
-13.33
-13.52
-13.69
-13.76
-13.71
-13.53
-13.26
-12.92
-12.52
-12.06
-11.58
-11.11
-10.69
-10.32
-9.93
-9.46
-8.85
-8.11
-7.27
-6.45
-5.80
-5.43
-5.38
-5.63
-6.04
-6.47
-6.80
-7.06
-7.30
-7.61
-8.02
-8.46
-8.85
-9.15
-9.39
