1478932887.00
64.000000
-0.00
-0.00
-0.00
-0.00
-0.00
-0.00
-0.00
-0.00
-0.00
-0.00
0.00
0.01
0.01
-0.00
-0.03
-0.05
-0.05
0.00
0.13
0.36
0.66
1.01
1.37
1.72
2.06
2.40
2.79
3.24
3.80
4.42
5.06
5.66
6.20
6.68
7.15
7.68
8.31
9.14
10.09
11.04
11.88
12.56
13.14
13.76
14.65
15.96
17.91
20.32
22.90
25.38
27.58
29.57
31.68
34.32
37.81
42.54
48.15
54.10
59.83
64.97
69.58
74.14
79.34
85.71
93.76
103.00
112.62
121.73
129.77
136.75
143.30
150.75
157.77
166.64
177.95
191.79
206.97
220.57
228.25
225.36
208.53
176.87
132.76
80.05
23.07
-34.94
-92.44
-149.16
-205.23
-260.37
-313.74
-363.87
-409.83
-450.91
-486.50
-515.74
-537.23
-549.22
-549.96
-538.37
-514.21
-478.67
-433.88
-382.45
-327.02
-269.84
-212.63
-156.66
-102.95
-52.37
-5.90
35.58
71.43
101.35
125.50
144.38
158.69
169.15
176.37
180.75
182.57
182.07
179.51
175.23
169.65
163.18
156.15
148.81
141.30
133.69
126.02
118.33
110.69
103.16
95.80
88.68
81.83
75.25
68.95
62.95
57.25
51.86
46.78
42.03
37.59
33.45
29.61
26.07
22.81
19.83
17.11
14.67
12.48
10.54
8.83
7.35
6.07
4.98
4.05
3.26
2.61
2.08
1.65
1.31
1.05
0.84
0.65
0.45
0.24
0.04
-0.13
-0.23
-0.24
-0.19
-0.11
-0.07
-0.11
-0.23
-0.39
-0.51
-0.54
-0.45
-0.27
-0.12
-0.09
-0.26
-0.62
-1.04
-1.38
-1.47
-1.27
-0.86
-0.48
-0.38
-0.72
-1.48
-2.41
-3.13
-3.32
-2.86
-1.97
-1.14
-0.93
-1.70
-3.37
-5.42
-7.03
-7.50
-6.61
-4.82
-3.09
-2.50
-3.69
-6.48
-9.89
-12.47
-13.14
-11.63
-8.73
-5.93
-4.73
-5.85
-9.11
-13.61
-18.13
-21.48
-22.57
-20.29
-13.56
-1.98
13.43
29.80
43.12
49.88
48.84
41.68
32.15
24.14
19.65
18.04
16.83
13.39
6.81
-1.39
-7.99
-9.74
-5.09
4.97
17.20
27.67
33.55
34.27
31.32
27.16
23.29
19.16
12.42
0.95
-15.21
-32.83
-46.60
-51.74
-46.63
-33.77
-18.51
-6.34
-0.11
0.99
0.39
1.79
6.99
14.84
22.08
25.02
21.46
11.53
-2.44
-16.90
-28.34
-34.24
-33.65
-27.22
-16.88
-5.22
5.13
12.16
14.76
12.84
7.11
-1.25
-10.83
-20.27
-28.27
-33.81
-36.19
-35.28
-31.43
-25.45
-18.36
-11.02
-3.95
2.74
9.20
15.72
21.98
27.46
31.61
34.10
34.97
34.50
33.09
31.02
28.29
24.66
19.89
13.88
6.89
-0.54
-7.65
-13.74
-18.43
-21.71
-23.98
-25.68
-27.13
-28.48
-29.91
-31.73
-34.36
-38.04
-42.49
-46.63
-48.78
-47.47
-42.10
-33.51
-23.58
-14.24
-6.71
-0.99
3.44
6.89
9.15
10.02
10.10
11.06
14.85
22.41
32.69
42.82
49.64
51.47
49.12
45.27
42.77
42.96
45.03
46.88
46.49
43.05
37.02
29.42
21.09
12.50
3.99
-3.89
-10.16
-13.72
-13.78
-10.06
-3.14
5.80
15.10
22.78
26.87
25.91
19.49
8.52
-4.93
-18.31
-29.38
-36.96
-40.98
-42.12
-41.17
-38.63
-34.67
-29.48
-23.56
-17.84
-13.41
-11.11
-11.19
-13.28
-16.53
-20.09
-23.35
-26.15
-28.60
-30.78
-32.50
-33.19
-32.18
-29.02
-23.84
-17.36
-10.70
-4.88
-0.48
2.38
3.92
4.37
3.77
2.04
-0.88
-4.82
-9.34
-13.85
-17.84
-21.16
-23.92
-26.49
-29.18
-32.09
-35.07
-37.81
-40.03
-41.73
-43.19
-44.97
-47.66
-51.70
-57.10
-63.37
-69.55
-74.42
-76.80
-75.77
-70.87
-62.17
-50.28
-36.35
-22.01
-8.97
1.46
8.85
13.64
16.63
18.25
18.10
15.37
9.81
2.62
-3.43
-5.07
-0.07
11.43
26.74
41.90
53.23
58.79
58.72
54.51
48.03
40.70
33.28
26.13
19.61
14.23
10.62
9.38
10.82
14.81
20.69
27.36
33.61
38.60
42.02
44.22
45.77
47.01
47.74
47.30
44.99
40.46
34.11
26.97
20.36
15.42
12.74
12.32
13.67
16.10
18.95
21.75
24.34
26.81
29.44
32.51
36.08
39.82
42.92
44.17
42.23
36.13
25.80
12.52
-1.15
-11.93
-16.91
-14.56
-5.33
8.47
23.46
36.32
44.69
47.64
45.63
39.99
32.43
24.55
17.55
12.19
8.83
7.45
7.76
9.23
11.09
12.49
12.75
11.64
9.45
6.92
4.81
3.53
2.88
2.20
0.68
-2.21
-6.47
-11.54
-16.44
-20.01
-21.19
-19.28
-14.20
-6.66
1.99
10.12
16.31
19.82
20.73
19.64
17.30
14.27
10.79
7.02
3.19
-0.26
-2.86
-4.34
-4.75
-4.48
-3.97
-3.55
-3.30
-3.11
-2.91
-2.76
-2.91
-3.77
-5.70
-8.88
-13.19
-18.11
-22.75
-26.00
-26.74
-24.30
-18.69
-10.70
-1.63
7.05
14.25
19.45
22.65
24.13
24.20
23.06
20.85
17.78
14.27
10.79
7.83
5.58
3.97
2.78
1.72
0.65
-0.40
-1.35
-2.13
-2.81
-3.50
-4.41
-5.68
-7.41
-9.63
-12.29
-15.14
-17.75
-19.51
-19.79
-18.13
-14.50
-9.31
-3.37
2.44
7.39
11.04
13.33
14.33
14.16
12.95
10.83
8.03
4.91
1.89
-0.66
-2.51
-3.59
-3.97
-3.82
-3.32
-2.65
-1.97
-1.39
-0.98
-0.78
-0.86
-1.41
-2.65
-4.76
-7.68
-10.92
-13.65
-14.92
-14.00
-10.67
-5.39
0.92
7.15
12.37
16.02
17.94
18.25
17.19
15.03
12.04
8.58
5.07
1.97
-0.32
-1.63
-2.08
-1.99
-1.82
-1.97
-2.66
-3.97
-5.84
-8.18
-10.89
-13.88
-17.08
-20.35
-23.52
-26.31
-28.37
-29.29
-28.74
-26.57
-22.82
-17.82
-11.98
-5.76
0.46
6.37
11.65
15.88
18.49
18.87
16.61
11.71
4.69
-3.41
-11.27
-17.56
-21.33
-22.14
-20.22
-16.41
-11.88
-7.90
-5.50
-5.33
-7.56
-11.95
-18.02
-25.07
-32.34
-38.90
-43.79
-46.08
-45.11
-40.62
-32.86
-22.63
-11.18
-0.06
9.07
14.71
15.92
12.70
6.28
-0.97
-6.03
-6.13
0.29
12.94
29.48
46.04
58.15
61.99
55.59
39.57
17.14
-6.76
-27.03
-40.07
-44.83
-42.86
-37.29
-31.37
-27.32
-25.87
-26.51
-28.15
-29.60
-29.74
-27.60
-22.55
-14.56
-4.59
5.53
13.43
17.02
15.27
8.67
-0.83
-10.42
-17.23
-19.30
-16.10
-8.35
2.43
14.81
27.87
41.15
54.07
65.43
73.43
76.30
73.31
65.35
54.79
44.60
37.25
33.93
34.43
37.57
41.78
45.65
48.16
48.69
47.08
43.61
39.01
34.44
31.14
30.04
31.30
33.96
36.27
36.31
32.81
25.84
16.73
7.55
0.23
-4.09
-5.27
-4.04
-1.53
0.91
2.04
0.94
-2.78
-8.84
-16.42
-24.56
-32.48
-39.68
-45.72
-49.89
-51.17
-48.60
-41.91
-31.92
-20.44
-9.48
-0.49
6.13
10.88
14.60
17.84
20.60
22.48
23.00
21.90
19.28
15.50
11.01
6.23
1.52
-2.84
-6.59
-9.50
-11.33
-11.91
-11.28
-9.70
-7.73
-6.12
-5.71
-7.18
-10.97
-17.14
-25.28
-34.53
-43.55
-50.76
-54.55
-53.85
-48.42
-39.03
-27.27
-15.00
-3.83
5.26
11.92
16.21
18.38
18.67
17.37
14.71
10.81
5.53
-1.62
-11.14
-23.13
-36.90
-50.89
-63.02
-71.35
-74.77
-73.33
-68.09
-60.73
-52.92
-45.96
-40.62
-37.19
-35.56
-35.32
-35.74
-35.79
-34.25
-29.91
-22.00
-10.52
3.58
18.50
32.10
42.40
48.20
49.22
46.01
39.66
31.47
22.76
14.71
8.23
3.81
1.39
0.35
-0.24
-1.35
-3.57
-7.00
-11.21
-15.55
-19.39
-22.33
-24.31
-25.49
-26.29
-27.24
-28.90
-31.59
-35.22
-39.06
-41.89
-42.33
-39.29
-32.41
-22.19
-9.81
3.24
15.48
25.80
33.48
38.13
39.75
38.56
35.13
30.31
25.12
20.45
16.89
14.52
12.93
11.49
9.56
6.86
3.51
-0.03
-3.17
-5.50
-6.93
-7.68
-8.20
-9.00
-10.51
-12.90
-16.03
-19.33
-21.87
-22.61
-20.68
-15.72
-8.04
1.44
11.44
20.71
28.36
33.95
37.44
39.00
38.88
37.36
34.72
31.32
27.55
23.81
20.38
17.36
14.76
12.46
10.41
8.60
7.12
6.04
5.32
4.72
3.87
2.27
-0.51
-4.66
-9.98
-15.75
-20.82
-23.86
-23.79
-20.10
-13.09
-3.80
6.36
16.00
24.15
30.32
34.45
36.61
36.86
35.24
31.92
27.35
22.25
17.43
13.53
10.76
8.85
7.28
5.48
3.21
0.60
-1.97
-4.12
-5.72
-6.97
-8.41
-10.60
-13.92
-18.33
-23.35
-28.19
-31.89
-33.45
-32.11
-27.45
-19.70
-9.80
0.78
10.35
17.62
22.06
24.00
24.31
23.94
23.46
22.92
22.02
20.51
18.43
16.22
14.51
13.74
14.04
15.07
16.22
16.87
16.56
15.20
12.94
9.92
6.22
1.64
-4.07
-11.05
-18.97
-26.87
-33.27
-36.47
-35.10
-28.61
-17.57
-3.59
11.09
24.21
34.01
39.59
40.92
38.57
33.45
26.53
18.80
11.15
4.45
-0.58
-3.44
-4.02
-2.59
0.14
3.25
5.81
7.16
7.07
5.75
3.71
1.50
-0.56
-2.46
-4.53
-7.16
-10.64
-14.92
-19.52
-23.68
-26.43
-26.93
-24.69
-19.76
-12.72
-4.55
3.63
10.88
16.58
20.44
22.47
22.76
21.45
18.76
15.01
10.73
6.58
3.26
1.26
0.75
1.48
2.88
4.27
5.07
5.04
4.33
3.32
2.40
1.76
1.22
0.29
-1.52
-4.50
-8.52
-13.04
-17.19
-20.06
-20.91
-19.31
-15.35
-9.53
-2.71
4.13
10.10
14.61
17.40
18.50
18.14
16.59
14.14
11.06
7.65
4.22
1.09
-1.46
-3.22
-4.09
-4.10
-3.48
-2.58
-1.83
-1.56
-1.92
-2.82
-4.05
-5.42
-6.86
-8.48
-10.41
-12.65
-14.97
-16.82
-17.55
-16.65
-13.88
-9.46
-3.94
1.99
7.63
12.46
16.18
18.59
19.65
19.39
17.93
15.52
12.53
9.39
6.50
4.22
2.73
2.04
2.06
2.55
3.27
3.97
4.51
4.81
4.88
4.69
4.21
3.34
1.95
0.00
-2.30
-4.46
-5.75
-5.38
-2.80
2.06
8.77
16.44
24.02
30.52
35.20
37.67
37.83
35.82
31.97
26.71
20.55
14.02
7.63
1.80
-3.19
-7.25
-10.47
-13.10
-15.37
-17.44
-19.23
-20.53
-21.12
-20.91
-20.14
-19.31
-19.07
-19.93
-22.04
-24.99
-27.92
-29.76
-29.62
-27.14
-22.55
-16.71
-10.66
-5.40
-1.52
0.80
1.62
1.09
-0.78
-4.04
-8.64
-14.23
-20.07
-25.20
-28.72
-30.16
-29.64
-27.79
-25.51
-23.59
-22.52
-22.41
-23.12
-24.48
-26.36
-28.70
-31.34
-34.04
-36.42
-38.06
-38.60
-37.75
-35.31
-31.19
-25.34
-17.90
-9.19
0.25
9.66
18.17
25.01
29.58
31.64
31.33
29.09
25.46
20.97
15.90
10.39
4.53
-1.38
-6.72
-10.69
-12.50
-11.78
-8.69
-3.98
1.26
5.81
8.56
8.57
5.25
-1.53
-11.18
-22.36
-33.01
-40.84
-43.97
-41.43
-33.48
-21.37
-7.01
7.64
20.84
31.20
37.56
39.09
35.29
26.34
13.28
-2.00
-17.14
-29.92
-38.80
-43.22
-43.48
-40.48
-35.32
-29.07
-22.70
-17.08
-12.93
-10.83
-11.11
-13.79
-18.65
-25.22
-32.79
-40.35
-46.57
-50.01
-49.47
-44.40
-35.24
-23.31
-10.50
1.35
10.85
17.43
21.13
22.48
22.18
20.89
19.14
17.34
15.70
14.27
12.95
11.58
10.13
8.71
7.55
6.82
6.60
6.71
6.90
7.01
7.05
7.17
7.51
8.03
8.37
7.94
6.23
3.08
-1.03
-5.02
-7.51
-7.30
-3.80
2.67
11.04
19.84
27.65
33.53
37.17
38.75
38.77
37.80
36.42
35.17
34.51
34.77
35.92
37.63
39.28
40.13
39.62
37.53
34.05
29.73
25.29
21.37
18.33
16.17
14.52
12.80
10.41
6.93
2.29
-3.24
-8.98
-13.95
-17.02
-17.19
-13.94
-7.54
0.97
10.02
18.06
24.11
27.99
30.18
31.37
32.02
32.16
31.53
30.00
27.77
25.43
23.62
22.75
22.75
23.15
23.39
23.09
22.23
21.08
20.00
19.23
18.78
18.56
18.43
18.38
18.43
18.60
18.80
18.90
18.81
18.59
18.46
18.65
19.17
19.78
20.05
19.66
18.58
17.12
15.69
14.49
13.30
11.56
8.71
4.56
-0.57
-5.91
-10.62
-14.10
-16.13
-16.92
-16.91
-16.58
-16.40
-16.75
-17.96
-20.18
-23.37
-27.20
-31.19
-34.81
-37.70
-39.79
-41.23
-42.19
-42.68
-42.34
-40.53
-36.68
-30.47
-22.25
-12.97
-3.91
3.73
9.09
11.91
12.35
10.92
8.32
5.32
2.56
0.37
-1.31
-2.96
-5.30
-8.89
-13.85
-19.61
-24.94
-28.20
-28.06
-24.45
-19.22
-16.02
-19.17
-31.81
-54.25
-83.42
-113.74
-139.15
-155.38
-161.05
-157.51
-147.61
-134.26
-119.47
-104.38
-89.63
-75.84
-63.64
-53.47
-45.34
-38.77
-33.01
-27.24
-20.92
-14.01
-7.00
-0.75
3.81
6.00
5.58
2.83
-1.63
-7.03
-12.69
-18.13
-23.05
-27.26
-30.60
-32.86
-33.78
-33.12
-30.74
-26.70
-21.26
-14.80
-7.75
-0.42
6.98
14.31
21.44
28.18
34.28
39.51
43.71
46.86
48.89
49.65
48.94
46.61
42.97
38.86
35.59
34.47
36.13
40.26
45.76
51.30
55.97
59.67
62.82
65.81
68.52
70.11
69.52
66.07
59.96
52.25
44.38
37.58
32.41
28.79
26.22
24.31
23.04
22.68
23.56
25.70
28.70
31.86
34.43
35.95
36.33
35.83
34.78
33.45
31.90
30.10
28.01
25.70
23.44
21.74
21.17
22.25
25.22
29.88
35.66
41.83
47.85
53.62
59.42
65.65
72.44
79.39
85.54
89.66
90.65
87.94
81.63
72.59
62.14
51.87
43.27
37.36
34.51
34.22
35.28
36.04
34.89
30.71
23.20
12.91
1.00
-11.12
-22.14
-31.12
-37.58
-41.36
-42.59
-41.54
-38.63
-34.45
-29.71
-25.16
-21.46
-19.03
-18.01
-18.21
-19.20
-20.45
-21.44
-21.86
-21.62
-20.86
-19.85
-18.85
-18.04
-17.40
-16.76
-15.90
-14.59
-12.74
-10.37
-7.62
-4.66
-1.66
1.27
3.99
6.24
7.63
7.63
5.74
1.74
-4.14
-11.21
-18.45
-24.83
-29.66
-32.73
-34.27
-34.77
-34.73
-34.53
-34.38
-34.33
-34.41
-34.54
-34.66
-34.69
-34.65
-34.70
-35.12
-36.19
-38.01
-40.23
-42.09
-42.61
-40.92
-36.67
-30.16
-22.29
-14.15
-6.68
-0.43
4.51
8.20
10.75
12.10
12.16
10.99
8.89
6.44
4.22
2.66
1.83
1.45
1.10
0.43
-0.62
-1.85
-2.82
-3.14
-2.61
-1.33
0.29
1.68
2.25
1.59
-0.45
-3.67
-7.57
-11.35
-14.12
-15.07
-13.63
-9.68
-3.52
4.17
12.47
20.39
27.06
31.84
34.35
34.63
33.02
30.21
27.01
24.21
22.39
21.67
21.75
21.92
21.32
19.24
15.46
10.33
4.69
-0.50
-4.53
-7.17
-8.72
-9.78
-11.01
-12.98
-15.89
-19.46
-22.82
-24.73
-23.98
-19.90
-12.83
-4.09
4.41
10.92
14.45
14.94
13.04
9.58
5.30
0.69
-3.75
-7.40
-9.57
-9.74
-7.90
-4.65
-1.06
1.68
2.72
1.80
-0.70
-4.00
-7.30
-10.05
-12.11
-13.64
-14.91
-16.13
-17.31
-18.33
-19.06
-19.40
-19.37
-18.98
-18.19
-16.88
-14.86
-11.97
-8.22
-3.88
0.51
4.30
6.89
7.97
7.59
6.10
4.03
1.88
-0.00
-1.49
-2.59
-3.41
-4.07
-4.63
-5.07
-5.32
-5.30
-5.00
-4.45
-3.84
-3.39
-3.33
-3.83
-4.95
-6.60
-8.63
-10.74
-12.51
-13.43
-13.04
-11.10
-7.80
-3.74
0.18
3.13
4.67
4.91
4.33
3.48
2.57
1.34
-0.79
-4.43
-9.80
-16.54
-23.88
-30.86
-36.58
-40.41
-42.10
-41.74
-39.74
-36.76
-33.67
-31.46
-31.08
-33.27
-38.30
-45.74
-54.38
-62.36
-67.66
-68.64
-64.59
-55.94
-44.03
-30.63
-17.29
-5.04
5.69
14.90
22.73
29.29
34.57
38.51
41.02
42.11
41.96
40.94
39.60
38.55
38.26
38.98
40.52
42.28
43.27
42.23
38.00
29.85
17.88
3.20
-12.25
-26.29
-37.25
-44.55
-48.75
-51.05
-52.48
-53.26
-52.74
-49.89
-44.02
-35.26
-24.63
-13.52
-3.14
5.90
13.51
19.81
24.79
28.17
29.63
29.09
26.96
24.10
21.50
19.99
19.91
21.03
22.76
24.41
25.47
25.85
25.83
25.88
26.44
27.62
29.12
30.22
29.99
27.56
22.54
15.22
6.78
-0.96
-5.92
-6.47
-1.96
7.02
18.88
31.59
43.42
53.38
61.29
67.44
72.18
75.52
77.05
76.19
72.52
66.05
57.36
47.51
37.66
28.83
21.65
16.26
12.43
9.75
7.85
6.50
5.65
5.31
5.35
5.49
5.41
4.79
3.44
1.27
-1.90
-6.34
-12.31
-19.82
-28.35
-36.73
-43.42
-46.98
-46.62
-42.48
-35.48
-27.01
-18.42
-10.73
-4.55
-0.14
2.55
3.73
3.82
3.27
2.57
2.10
2.03
2.38
3.01
3.75
4.37
4.71
4.66
4.24
3.50
2.58
1.57
0.52
-0.60
-1.84
-3.24
-4.77
-6.36
-7.86
-9.15
-10.05
-10.39
-9.99
-8.72
-6.56
-3.59
-0.06
3.70
7.33
10.52
13.05
14.86
15.95
16.47
16.55
16.36
16.04
15.68
15.28
14.80
14.19
13.41
12.46
11.40
10.26
9.09
7.88
6.65
5.42
4.23
3.05
1.79
0.30
-1.58
-3.89
-6.53
-9.18
-11.46
-12.98
-13.45
-12.78
-11.04
-8.49
-5.46
-2.36
0.47
2.73
4.25
4.94
4.81
3.91
2.32
0.12
-2.55
-5.51
-8.47
-11.12
-13.15
-14.47
-15.20
-15.74
-16.48
-17.68
-19.30
-20.97
-22.23
-22.74
-22.47
-21.78
-21.24
-21.43
-22.72
-24.99
-27.61
-29.55
-29.69
-27.18
-21.90
-14.51
-6.36
1.03
6.54
9.91
11.82
13.48
16.20
20.84
27.49
35.41
43.03
48.16
48.44
42.08
28.70
9.88
-10.97
-29.61
-42.48
-48.04
-47.22
-42.77
-37.84
-34.71
-34.22
-36.06
-39.54
-44.21
-49.93
-56.40
-62.75
-67.59
-69.50
-67.74
-62.79
-56.19
-49.93
-45.47
-43.11
-41.91
-40.12
-36.11
-29.08
-19.42
-8.53
1.80
9.96
15.01
16.64
15.10
10.97
5.17
-0.93
-5.51
-6.60
-2.69
6.62
20.19
35.67
50.19
61.37
68.04
70.35
69.43
66.71
63.35
60.04
57.11
54.85
53.68
54.14
56.53
60.68
65.76
70.46
73.42
73.76
71.39
67.04
61.81
56.68
52.08
47.83
43.29
37.83
31.01
22.80
13.41
3.26
-7.21
-17.52
-27.23
-35.92
-43.26
-49.10
-53.47
-56.64
-59.03
-61.20
-63.64
-66.59
-69.84
-72.62
-73.78
-72.22
-67.30
-59.19
-48.85
-37.70
-27.15
-18.19
-11.23
-6.14
-2.60
-0.30
0.90
1.04
0.19
-1.37
-3.18
-4.71
-5.54
-5.50
-4.77
-3.72
-2.77
-2.20
-2.09
-2.35
-2.90
-3.79
-5.22
-7.44
-10.66
-14.89
-19.91
-25.20
-30.06
-33.61
-34.99
-33.57
-29.14
-22.08
-13.29
-3.93
4.91
12.49
18.47
22.78
25.44
26.42
25.73
23.51
20.20
16.46
12.94
10.14
8.21
6.98
6.09
5.21
4.10
2.69
1.03
-0.83
-2.86
-5.14
-7.81
-11.10
-15.20
-20.19
-25.96
-32.08
-37.76
-41.97
-43.67
-42.11
-37.12
-29.18
-19.33
-8.90
0.90
9.15
15.35
19.32
21.14
21.03
19.34
16.57
13.30
10.18
7.74
6.25
5.67
5.64
5.68
5.35
4.42
2.91
1.12
-0.66
-2.16
-3.42
-4.70
-6.44
-9.13
-13.03
-18.00
-23.38
-28.09
-30.88
-30.76
-27.30
-20.81
-12.27
-2.96
5.88
13.37
19.09
23.04
25.37
26.29
25.94
24.49
22.16
19.29
16.31
13.65
11.56
10.02
8.79
7.49
5.86
3.83
1.62
-0.44
-2.07
-3.25
-4.25
-5.59
-7.84
-11.39
-16.28
-22.05
-27.76
-32.17
-34.05
-32.57
-27.60
-19.77
-10.29
-0.62
8.02
14.91
19.86
23.06
24.79
25.32
24.80
23.44
21.52
19.40
17.44
15.83
14.50
13.21
11.66
9.67
7.30
4.84
2.65
0.99
-0.14
-1.09
-2.40
-4.74
-8.55
-13.92
-20.36
-26.83
-31.98
-34.43
-33.25
-28.21
-19.94
-9.66
1.11
11.04
19.23
25.30
29.25
31.30
31.69
30.65
28.50
25.61
22.45
19.41
16.78
14.58
12.69
10.89
9.07
7.25
5.60
4.30
3.44
2.89
2.27
1.07
-1.24
-5.03
-10.29
-16.54
-22.90
-28.23
-31.35
-31.44
-28.14
-21.70
-12.88
-2.77
7.53
16.98
24.87
30.71
34.29
35.54
34.56
31.60
27.21
22.13
17.23
13.29
10.74
9.53
9.21
9.19
8.99
8.46
7.72
7.03
6.51
6.01
5.19
3.64
1.07
-2.62
-7.29
-12.51
-17.65
-21.81
-24.01
-23.41
-19.64
-12.97
-4.29
5.14
14.02
21.38
26.68
29.78
30.76
29.78
27.11
23.17
18.52
13.83
9.67
6.41
4.10
2.52
1.33
0.22
-0.94
-2.09
-3.08
-3.82
-4.38
-5.03
-6.21
-8.33
-11.66
-16.17
-21.43
-26.61
-30.65
-32.40
-31.03
-26.23
-18.42
-8.66
1.66
11.18
18.93
24.52
28.01
29.70
29.87
28.74
26.41
23.10
19.20
15.28
11.95
9.62
8.41
8.08
8.23
8.46
8.54
8.42
8.16
7.73
7.00
5.70
3.51
0.19
-4.31
-9.82
-15.84
-21.59
-26.06
-28.15
-26.99
-22.25
-14.32
-4.29
6.36
16.19
24.14
29.71
32.90
33.94
33.10
30.65
26.91
22.34
17.64
13.53
10.59
9.05
8.66
8.85
8.89
8.22
6.65
4.37
1.80
-0.58
-2.54
-4.17
-5.87
-8.18
-11.57
-16.23
-21.95
-28.04
-33.43
-36.87
-37.24
-33.89
-26.95
-17.30
-6.37
4.30
13.52
20.69
25.81
29.15
30.99
31.48
30.56
28.26
24.76
20.55
16.28
12.57
9.83
8.15
7.26
6.76
6.20
5.29
3.95
2.27
0.42
-1.50
-3.54
-5.92
-8.91
-12.74
-17.43
-22.66
-27.75
-31.75
-33.66
-32.70
-28.58
-21.64
-12.74
-3.07
6.21
14.21
20.42
24.70
27.08
27.70
26.71
24.32
20.87
16.87
12.91
9.52
7.04
5.53
4.84
4.64
4.58
4.44
4.10
3.57
2.91
2.20
1.40
0.37
-1.14
-3.40
-6.61
-10.78
-15.62
-20.45
-24.43
-26.58
-26.08
-22.56
-16.24
-7.89
1.31
10.18
17.78
23.59
27.48
29.58
30.01
28.88
26.34
22.70
18.55
14.67
11.65
9.83
9.13
9.12
9.21
8.96
8.23
7.21
6.51
6.35
6.96
8.20
9.58
10.40
10.00
8.04
4.78
1.44
-0.94
-0.75
3.16
11.11
22.32
35.21
47.90
58.93
68.14
75.15
80.84
86.24
92.19
99.14
107.30
116.70
127.14
138.64
149.12
156.74
159.39
155.23
143.36
124.02
98.48
64.70
31.11
-0.71
-27.97
-47.95
-58.77
-60.40
-55.30
-48.22
-44.81
-48.98
-63.28
-85.92
-112.47
-137.89
-158.47
-172.97
-182.28
-188.13
-191.07
-191.30
-187.17
-176.92
-159.89
-137.16
-111.23
-84.98
-60.57
-38.51
-18.75
-0.28
17.60
34.68
49.67
60.70
65.82
63.69
54.01
37.08
14.11
-13.38
-43.82
-75.63
-106.97
-135.38
-157.73
-170.69
-171.92
-161.06
-140.26
-113.74
-86.44
-62.29
-43.12
-28.51
-16.75
-6.19
3.85
12.89
19.96
24.43
26.53
27.17
27.37
27.70
28.02
27.76
26.45
24.08
21.29
19.03
18.11
18.77
20.49
22.17
22.53
20.55
15.87
9.00
1.25
-5.55
-9.53
-9.34
-4.46
4.68
16.91
30.76
44.79
57.85
69.15
78.19
84.69
88.57
90.01
89.38
87.20
83.97
80.10
75.74
70.86
65.28
58.87
51.69
44.06
36.53
29.66
23.84
19.09
15.09
11.30
7.23
2.47
-3.14
-9.64
-16.80
-24.05
-30.36
-34.45
-35.07
-31.60
-24.36
-14.63
-4.19
5.28
12.79
18.16
21.80
24.24
25.82
26.58
26.55
25.89
25.06
24.64
25.11
26.61
28.85
31.26
33.24
34.41
34.74
34.42
33.70
32.57
30.55
26.76
20.16
10.04
-3.57
-19.61
-36.11
-50.75
-61.56
-67.56
-68.97
-67.07
-63.56
-60.06
-57.61
-56.60
-56.97
-58.41
-60.57
-63.06
-65.40
-66.93
-66.99
-65.12
-61.32
-56.17
-50.77
-46.35
-43.85
-43.51
-44.62
-45.71
-45.09
-41.53
-34.86
-26.10
-17.17
-10.14
-6.52
-6.78
-10.25
-15.42
-20.39
-23.26
-22.59
-17.67
-8.72
3.08
15.83
27.42
36.17
41.24
42.79
41.60
38.64
34.58
29.72
24.11
18.01
11.98
6.87
3.47
2.19
2.91
5.16
8.50
12.79
18.28
25.20
33.38
41.91
49.30
53.93
54.66
51.13
43.76
33.39
21.04
7.86
-4.68
-14.58
-19.53
-17.52
-7.74
8.89
29.75
51.30
70.24
84.23
92.22
93.93
89.42
78.88
62.85
42.67
20.52
-0.99
-19.66
-34.39
-45.47
-54.13
-61.84
-69.59
-77.62
-85.50
-92.45
-97.73
-100.81
-101.65
-100.64
-98.71
-97.07
-96.93
-99.09
-103.53
-109.22
-114.18
-115.95
-112.23
-101.67
-84.44
-62.29
-38.12
-15.10
4.29
18.75
28.22
33.45
35.47
35.17
33.24
30.29
26.90
23.66
20.97
18.89
17.14
15.31
13.06
10.34
7.42
4.73
2.61
1.10
-0.14
-1.78
-4.63
-9.24
-15.62
-22.94
-29.63
-33.68
-33.36
-27.80
-17.43
-3.84
10.73
24.16
35.08
43.02
48.24
51.26
52.47
51.93
49.56
45.40
39.76
33.33
26.88
21.03
15.97
11.41
6.80
1.63
-4.27
-10.71
-17.18
-23.24
-28.75
-33.92
-39.18
-44.91
-51.23
-57.96
-64.69
-70.83
-75.64
-78.23
-77.70
-73.39
-65.25
-54.08
-41.35
-28.84
-17.93
-9.21
-2.38
3.35
8.72
14.02
18.95
22.98
25.67
26.97
27.20
26.89
26.46
25.99
25.26
23.79
21.16
17.15
11.91
5.90
-0.29
-6.03
-10.85
-14.53
-17.04
-18.52
-19.21
-19.15
-18.08
-15.29
-9.78
-0.55
12.82
29.78
48.75
67.54
83.98
96.56
104.69
108.57
108.81
106.11
101.12
94.59
87.41
80.49
74.49
69.55
65.23
60.82
55.67
49.56
42.73
35.78
29.36
23.91
19.66
16.54
14.29
12.52
10.69
8.24
4.66
-0.28
-6.36
-12.70
-17.91
-20.31
-18.44
-11.60
-0.18
14.35
29.82
43.99
55.09
62.23
65.31
64.85
61.60
56.36
49.84
42.69
35.59
29.10
23.56
18.94
14.83
10.56
5.54
-0.49
-7.34
-14.43
-21.06
-26.72
-31.25
-34.92
-38.28
-41.98
-46.59
-52.39
-59.15
-66.01
-71.54
-74.03
-72.10
-65.25
-54.15
-40.53
-26.54
-14.11
-4.41
2.29
6.35
8.29
8.47
7.05
4.16
0.14
-4.32
-8.35
-11.22
-12.59
-12.65
-11.98
-11.26
-10.98
-11.22
-11.73
-12.15
-12.22
-11.97
-11.75
-12.08
-13.52
-16.47
-21.06
-27.05
-33.70
-39.79
-43.75
-44.07
-39.80
-30.97
-18.68
-4.80
8.65
20.07
28.69
34.46
37.73
38.87
38.04
35.30
30.82
25.14
19.14
13.79
9.80
7.37
6.13
5.33
4.26
2.55
0.32
-1.90
-3.52
-4.22
-4.11
-3.78
-3.99
-5.49
-8.78
-13.97
-20.67
-27.96
-34.43
-38.43
-38.46
-33.70
-24.41
-11.87
1.93
14.95
25.64
33.30
37.90
39.88
39.74
37.88
34.64
30.36
25.50
20.59
16.17
12.54
9.77
7.67
5.85
3.94
1.80
-0.51
-2.69
-4.39
-5.48
-6.09
-6.73
-8.07
-10.76
-15.22
-21.43
-28.81
-36.24
-42.12
-44.78
-42.95
-36.21
-25.23
-11.65
2.46
15.23
25.48
32.87
37.63
40.16
40.74
39.47
36.43
31.98
26.76
21.63
17.33
14.26
12.34
11.10
9.93
8.42
6.42
4.12
1.86
-0.09
-1.67
-3.08
-4.77
-7.26
-11.02
-16.30
-23.02
-30.54
-37.71
-42.88
-44.40
-41.17
-33.12
-21.39
-7.98
4.91
15.62
23.39
28.33
30.96
31.75
30.89
28.36
24.30
19.21
13.98
9.57
6.69
5.45
5.37
5.59
5.24
3.87
1.52
-1.29
-3.93
-5.88
-7.08
-7.87
-8.84
-10.69
-13.96
-18.95
-25.50
-32.93
-40.00
-45.01
-46.27
-42.60
-33.91
-21.28
-6.76
7.43
19.50
28.53
34.49
37.80
38.94
38.17
35.59
31.40
26.10
20.56
15.71
12.27
10.40
9.68
9.31
8.45
6.63
3.91
0.83
-1.93
-3.83
-4.84
-5.43
-6.39
-8.56
-12.47
-18.21
-25.31
-32.78
-39.24
-43.17
-43.23
-38.72
-29.83
-17.68
-4.05
9.16
20.40
28.83
34.26
36.92
37.19
35.39
31.83
26.91
21.27
15.72
11.08
7.95
6.56
6.66
7.64
8.69
9.08
8.36
6.50
3.79
0.72
-2.35
-5.28
-8.22
-11.49
-15.42
-20.12
-25.27
-30.14
-33.56
-34.22
-31.04
-23.52
-12.09
2.07
17.23
31.68
44.15
54.02
61.17
65.71
67.70
67.15
64.15
59.11
52.86
46.42
40.78
36.48
33.48
31.20
28.86
25.82
21.90
17.34
12.67
8.30
4.32
0.40
-3.99
-9.40
-16.06
-23.78
-31.95
-39.49
-45.10
-47.37
-45.14
-37.81
-25.64
-9.79
7.96
25.66
41.70
55.08
65.49
73.01
77.84
80.06
79.68
76.70
71.33
64.13
55.96
47.75
40.25
33.75
28.03
22.58
16.90
10.84
4.68
-1.16
-6.45
-11.51
-17.24
-24.78
-35.06
-48.27
-63.75
-80.00
-94.97
-106.38
-112.13
-110.76
-101.81
-86.15
-65.78
-43.33
-21.24
-1.17
16.31
31.34
44.29
55.20
63.74
69.38
71.84
71.20
67.86
62.29
54.83
45.79
35.59
25.00
15.11
7.15
2.26
1.19
4.16
10.81
20.15
30.65
40.39
47.41
50.15
47.93
41.23
31.54
20.87
10.99
2.79
-3.95
-10.26
-17.34
-25.89
-35.79
-46.28
-56.40
-65.41
-73.08
-79.46
-84.63
-88.41
-90.33
-89.90
-86.92
-81.69
-75.16
-68.67
-63.62
-61.07
-61.45
-64.48
-69.37
-75.14
-81.07
-86.89
-92.76
-99.10
-106.40
-114.90
-124.45
-134.41
-143.52
-150.16
-152.63
-149.77
-141.32
-128.13
-111.86
-94.41
-77.34
-61.57
-47.37
-34.75
-23.70
-14.31
-6.65
-0.58
4.39
8.93
13.69
19.05
24.95
30.93
36.34
40.59
43.34
44.64
44.86
44.49
43.86
43.01
41.53
38.73
33.90
26.66
17.24
6.63
-3.48
-11.10
-14.39
-12.18
-4.41
7.89
22.91
38.59
53.24
65.84
76.04
83.95
89.75
93.48
95.11
94.65
92.36
88.75
84.51
80.16
75.83
71.23
65.76
58.92
50.59
41.22
31.63
22.65
14.71
7.67
0.90
-6.48
-15.22
-25.71
-37.84
-50.93
-63.71
-74.43
-81.17
-82.38
-77.42
-66.88
-52.48
-36.45
-20.92
-7.29
3.84
12.47
18.87
23.23
25.72
26.54
26.12
25.09
24.14
23.78
24.18
25.17
26.33
27.18
27.45
27.12
26.47
25.91
25.73
25.88
25.93
25.12
22.64
17.93
10.91
2.14
-7.17
-15.38
-20.75
-21.92
-18.37
-10.55
0.14
11.84
22.69
31.37
37.23
40.26
40.80
39.32
36.26
32.07
27.31
22.63
18.68
15.93
14.42
13.79
13.41
12.65
11.21
9.30
7.43
6.22
5.96
6.45
6.99
6.62
4.52
0.24
-6.06
-13.62
-21.13
-26.93
-29.34
-27.18
-20.16
-9.07
4.36
18.03
30.07
39.29
45.29
48.15
48.08
45.15
39.38
31.04
20.86
10.05
-0.04
-8.38
-14.61
-19.11
-22.71
-26.21
-30.01
-33.94
-37.45
-39.99
-41.34
-41.79
-42.06
-43.01
-45.34
-49.29
-54.53
-60.09
-64.52
-66.14
-63.51
-55.92
-43.66
-28.10
-11.29
4.63
18.02
28.02
34.54
37.90
38.48
36.58
32.50
26.72
20.00
13.24
7.26
2.49
-1.14
-4.11
-7.06
-10.45
-14.38
-18.49
-22.18
-24.84
-26.18
-26.34
-25.87
-25.59
-26.24
-28.23
-31.35
-34.79
-37.27
-37.38
-34.03
-26.76
-15.87
-2.34
12.49
27.21
40.62
51.82
60.30
65.87
68.67
69.15
67.95
65.74
63.07
60.26
57.45
54.66
51.93
49.30
46.82
44.55
42.52
40.80
39.42
38.36
37.34
35.83
33.03
28.10
20.52
10.32
-1.73
-14.23
-25.42
-33.68
-37.92
-37.92
-34.32
-28.43
-21.74
-15.49
-10.43
-6.77
-4.47
-3.49
-3.95
-6.03
-9.66
-14.29
-18.84
-22.03
-22.86
-21.03
-17.02
-11.89
-6.76
-2.38
1.11
4.02
6.81
9.75
12.66
15.01
16.10
15.39
12.73
8.52
3.76
-0.11
-1.55
0.71
7.21
17.62
30.75
44.89
58.29
69.59
77.95
83.04
84.73
82.94
77.56
68.73
56.99
43.43
29.52
16.74
6.08
-2.17
-8.41
-13.43
-17.93
-22.24
-26.26
-29.63
-32.09
-33.77
-35.23
-37.31
-40.86
-46.38
-53.89
-62.66
-71.32
-78.01
-80.86
-78.54
-70.75
-58.41
-43.37
-27.87
-13.83
-2.37
6.22
12.21
15.97
17.74
17.60
15.69
12.41
8.55
5.00
2.51
1.35
1.29
1.72
2.00
1.75
1.07
0.37
0.19
0.84
2.17
3.58
4.20
3.18
-0.02
-5.45
-12.61
-20.54
-27.92
-33.34
-35.67
-34.27
-29.24
-21.41
-12.05
-2.52
6.00
12.81
17.59
20.28
20.96
19.74
16.86
12.76
8.08
3.57
-0.07
-2.46
-3.67
-4.20
-4.74
-5.88
-7.79
-10.21
-12.62
-14.53
-15.83
-16.81
-18.06
-20.23
-23.70
-28.48
-34.16
-39.86
-44.33
-46.15
-44.04
-37.28
-26.09
-11.68
4.00
18.87
31.31
40.52
46.55
50.00
51.61
51.96
51.41
50.20
48.64
47.15
46.19
45.93
46.08
45.87
44.41
41.10
36.07
30.16
24.54
20.13
17.10
14.73
11.64
6.32
-2.29
-14.41
-29.12
-44.31
-57.04
-64.19
-63.41
-54.04
-37.50
-16.94
3.75
21.26
33.78
41.22
44.84
46.50
47.93
50.45
54.79
61.07
68.72
76.34
81.87
83.05
78.25
67.25
51.62
34.38
19.10
8.77
5.03
7.77
15.49
25.81
36.14
44.05
47.63
45.70
38.05
25.54
10.09
-5.81
-19.76
-30.09
-36.24
-38.75
-38.80
-37.65
-36.25
-34.98
-33.85
-32.72
-31.46
-30.13
-28.79
-27.44
-25.93
-23.97
-21.29
-17.75
-13.46
-8.71
-3.91
0.55
4.44
7.68
10.38
12.72
14.86
16.79
18.30
18.89
17.84
14.36
7.92
-1.46
-13.14
-25.82
-37.91
-47.94
-55.02
-59.05
-60.69
-61.12
-61.74
-63.87
-68.55
-76.43
-87.66
-101.83
-117.96
-134.57
-149.92
-162.25
-170.21
-173.12
-171.09
-164.98
-156.09
-145.81
-135.20
-124.83
-114.80
-104.94
-95.17
-85.76
-77.39
-70.98
-67.35
-66.80
-68.76
-71.74
-73.55
-71.88
-64.99
-52.35
-34.80
-14.36
6.46
25.43
41.15
53.16
61.71
67.27
70.27
70.93
69.46
66.31
62.21
58.08
54.73
52.53
51.31
50.51
49.46
47.78
45.48
42.91
40.53
38.66
37.26
35.93
34.02
30.83
25.84
18.99
10.96
3.17
-2.40
-3.68
0.79
11.39
27.39
47.19
68.74
89.94
108.87
123.92
134.02
138.75
138.50
134.32
127.49
119.05
109.39
98.31
85.35
70.41
53.98
37.17
21.25
7.26
-4.37
-13.78
-21.41
-27.75
-33.11
-37.60
-41.27
-44.27
-46.86
-49.07
-50.47
-49.95
-46.05
-37.56
-24.19
-6.95
12.10
30.60
46.62
59.23
68.51
74.99
79.16
81.14
80.76
77.91
72.83
66.27
59.28
52.85
47.64
43.90
41.53
40.18
39.54
39.33
39.41
39.65
39.85
39.59
38.25
35.01
29.10
20.08
8.21
-5.44
-19.01
-30.40
-37.80
-40.35
-38.39
-33.34
-27.21
-21.90
-18.73
-18.15
-19.95
-23.53
-28.26
-33.67
-39.47
-45.38
-51.04
-55.95
-59.63
-61.75
-62.27
-61.41
-59.43
-56.52
-52.66
-47.74
-41.79
-35.20
-28.76
-23.48
-20.30
-19.79
-22.00
-26.40
-31.96
-37.28
-40.77
-41.04
-37.21
-29.31
-18.23
-5.54
7.05
18.17
27.06
33.52
37.66
39.61
39.43
37.20
33.16
27.87
22.09
16.55
11.78
7.88
4.64
1.73
-1.05
-3.57
-5.55
-6.62
-6.67
-5.95
-5.05
-4.73
-5.73
-8.60
-13.45
-19.88
-26.86
-32.88
-36.29
-35.81
-30.99
-22.40
-11.40
0.28
11.12
20.16
26.95
31.38
33.39
32.95
30.13
25.30
19.23
12.96
7.51
3.61
1.46
0.67
0.53
0.32
-0.38
-1.54
-2.77
-3.62
-3.87
-3.74
-3.86
-5.06
-8.03
-13.06
-19.87
-27.58
-34.85
-40.21
-42.36
-40.63
-35.20
-27.10
-17.87
-9.03
-1.63
4.03
8.29
11.75
14.95
18.11
21.19
24.09
26.79
29.32
31.66
33.52
34.35
33.53
30.65
25.79
19.61
13.05
7.00
1.81
-2.82
-7.69
-13.73
-21.56
-31.22
-42.07
-52.98
-62.53
-69.37
-72.52
-71.65
-67.10
-59.84
-51.15
-42.22
-33.93
-26.61
-20.33
-15.05
-10.96
-8.49
-8.14
-10.21
-14.46
-20.12
-26.00
-30.90
-33.95
-34.96
-34.36
-33.04
-31.95
-31.70
-32.39
-33.59
-34.68
-35.15
-34.87
-34.15
-33.48
-33.25
-33.54
-34.02
-34.08
-33.00
-29.99
-24.36
-15.54
-3.25
12.19
29.82
47.93
64.49
77.63
86.10
89.48
88.06
82.60
74.10
63.74
52.89
43.06
35.70
31.85
31.86
35.35
41.34
48.63
56.05
62.69
67.95
71.49
73.18
73.07
71.30
68.04
63.45
57.60
50.57
42.48
33.75
25.11
17.65
12.53
10.67
12.40
17.35
24.49
32.50
40.10
46.35
50.72
53.01
53.20
51.41
47.88
43.07
37.67
32.40
27.83
24.18
21.23
18.48
15.35
11.41
6.53
0.92
-5.02
-10.86
-16.38
-21.63
-26.91
-32.61
-39.06
-46.42
-54.62
-63.27
-71.62
-78.53
-82.68
-82.84
-78.45
-69.87
-58.44
-46.10
-34.72
-25.61
-19.24
-15.48
-13.90
-14.11
-15.79
-18.54
-21.73
-24.57
-26.32
-26.61
-25.60
-23.88
-22.16
-21.00
-20.60
-20.79
-21.24
-21.64
-21.89
-22.11
-22.58
-23.65
-25.64
-28.68
-32.62
-36.87
-40.44
-42.03
-40.47
-35.10
-26.12
-14.62
-2.28
9.16
18.42
24.87
28.51
29.71
28.88
26.43
22.76
18.36
13.82
9.71
6.39
3.93
2.12
0.60
-0.92
-2.52
-4.12
-5.51
-6.56
-7.30
-7.96
-8.89
-10.57
-13.42
-17.67
-23.20
-29.37
-35.04
-38.77
-39.26
-35.80
-28.59
-18.67
-7.61
2.96
11.78
18.14
21.82
22.89
21.64
18.45
13.88
8.63
3.51
-0.82
-3.99
-5.98
-7.14
-7.93
-8.74
-9.76
-10.96
-12.18
-13.28
-14.31
-15.55
-17.45
-20.50
-24.99
-30.81
-37.29
-43.25
-47.19
-47.70
-43.90
-35.79
-24.27
-10.94
2.40
14.18
23.41
29.72
33.17
34.09
32.86
29.92
25.78
21.05
16.41
12.36
9.17
6.79
4.91
3.18
1.38
-0.51
-2.34
-3.95
-5.41
-7.00
-9.25
-12.83
-18.20
-25.42
-33.93
-42.52
-49.52
-53.25
-52.58
-47.26
-38.18
-27.07
-16.03
-6.92
-0.90
1.70
1.26
-1.46
-5.65
-10.61
-15.82
-20.91
-25.66
-29.92
-33.63
-36.80
-39.46
-41.66
-43.45
-44.96
-46.36
-47.92
-50.00
-52.97
-57.22
-63.03
-70.32
-78.43
-85.88
-90.49
-89.79
-81.80
-65.71
-42.30
-13.66
17.42
48.28
76.95
102.29
123.69
140.75
153.03
160.13
161.81
158.19
149.79
137.38
121.77
103.78
84.20
63.91
43.93
25.34
9.17
-3.92
-13.79
-20.83
-25.77
-29.19
-31.16
-30.89
-26.83
-17.22
-0.72
22.85
52.19
84.71
117.14
146.31
169.84
186.36
195.52
197.61
193.27
183.25
168.46
149.93
128.90
106.80
85.14
65.31
48.45
35.22
25.78
19.74
16.29
14.35
12.90
11.14
8.62
5.24
1.12
-3.56
-8.63
-14.03
-19.78
-25.98
-32.79
-40.25
-48.11
-55.67
-61.72
-64.77
-63.51
-57.30
-46.58
-32.82
-18.12
-4.63
6.07
13.23
16.85
17.39
15.47
11.70
6.67
1.05
-4.38
-8.93
-12.10
-13.84
-14.53
-14.75
-15.04
-15.65
-16.46
-17.13
-17.39
-17.23
-17.00
-17.24
-18.57
-21.39
-25.77
-31.30
-37.11
-41.93
-44.32
-43.12
-37.76
-28.64
-17.04
-4.74
6.50
15.38
21.29
24.22
24.52
22.62
19.00
14.19
8.83
3.61
-0.87
-4.27
-6.58
-8.10
-9.23
-10.33
-11.58
-12.94
-14.26
-15.41
-16.36
-17.28
-18.52
-20.53
-23.72
-28.27
-33.92
-39.89
-44.96
-47.72
-47.02
-42.37
-34.16
-23.59
-12.31
-1.95
6.28
11.80
14.53
14.72
12.76
9.04
3.98
-1.83
-7.73
-13.06
-17.33
-20.40
-22.44
-23.86
-25.05
-26.17
-27.09
-27.42
-26.77
-25.09
-22.80
-20.83
-20.37
-22.41
-27.21
-34.04
-41.24
-46.68
-48.50
-45.79
-38.92
-29.31
-18.88
-9.37
-1.87
3.31
6.41
7.97
8.59
8.98
10.03
12.77
18.24
27.10
39.30
53.95
69.55
84.38
96.97
106.36
112.21
114.60
113.82
110.21
104.04
95.45
84.49
71.08
55.11
36.67
16.31
-4.65
-24.21
-39.99
-49.94
-53.03
-49.67
-41.63
-31.49
-21.84
-14.60
-10.63
-9.72
-10.93
-12.78
-13.64
-11.84
-5.96
4.81
20.38
39.54
60.11
79.40
94.83
104.57
107.82
104.93
96.97
85.44
71.80
57.29
42.75
28.69
15.27
2.48
-9.84
-21.78
-33.19
-43.58
-52.05
-57.44
-58.73
-55.39
-47.71
-36.83
-24.44
-12.27
-1.67
6.63
12.53
16.22
17.89
17.62
15.36
11.14
5.27
-1.62
-8.73
-15.30
-20.85
-25.34
-28.99
-32.18
-35.15
-37.92
-40.33
-42.17
-43.37
-44.08
-44.60
-45.36
-46.76
-49.08
-52.45
-56.77
-61.56
-65.95
-68.79
-68.91
-65.49
-58.42
-48.43
-36.86
-25.32
-15.21
-7.39
-2.22
0.40
0.77
-0.74
-3.67
-7.47
-11.44
-14.91
-17.33
-18.48
-18.50
-17.83
-16.96
-16.24
-15.73
-15.21
-14.41
-13.19
-11.72
-10.43
-9.87
-10.55
-12.70
-16.21
-20.57
-24.93
-28.16
-29.09
-26.83
-21.07
-12.31
-1.76
8.99
18.48
25.71
30.33
32.50
32.61
31.06
28.24
24.52
20.37
16.30
12.77
10.04
8.09
6.66
5.37
3.94
2.32
0.63
-0.85
-1.96
-2.68
-3.28
-4.18
-5.91
-8.84
-13.03
-18.12
-23.23
-27.18
-28.69
-26.82
-21.27
-12.57
-1.98
8.85
18.36
25.45
29.67
31.21
30.56
28.37
25.20
21.49
17.56
13.68
10.11
7.01
4.47
2.42
0.71
-0.79
-2.13
-3.25
-4.01
-4.31
-4.27
-4.21
-4.63
-6.06
-8.81
-12.82
-17.54
-21.97
-24.89
-25.18
-22.15
-15.85
-7.09
2.78
12.25
20.08
25.53
28.47
29.16
28.06
25.62
22.25
18.32
14.24
10.39
7.10
4.56
2.74
1.49
0.58
-0.09
-0.46
-0.37
0.30
1.51
2.94
4.09
4.40
3.52
1.44
-1.31
-3.75
-4.59
-2.61
2.98
12.20
24.23
37.60
50.70
62.16
71.26
77.96
82.64
85.80
87.71
88.41
87.76
85.69
82.33
78.09
73.56
69.32
65.81
63.23
61.58
60.71
60.47
60.71
61.33
62.24
63.25
64.05
64.21
63.37
61.46
58.88
56.50
55.35
56.19
59.05
63.20
67.31
69.97
70.16
67.59
62.56
55.69
47.66
39.00
30.07
21.17
12.55
4.43
-3.09
-9.90
-15.82
-20.59
-23.91
-25.61
-25.87
-25.31
-24.75
-24.94
-26.27
-28.70
-31.96
-35.74
-39.74
-43.50
-46.27
-46.99
-44.70
-39.10
-30.89
-21.79
-13.92
-9.01
-7.80
-9.90
-14.25
-19.65
-25.22
-30.52
-35.43
-39.95
-44.07
-47.74
-50.98
-53.77
-56.15
-58.07
-59.53
-60.55
-61.24
-61.83
-62.64
-64.05
-66.48
-70.34
-75.83
-82.72
-90.10
-96.39
-99.71
-98.47
-92.00
-80.91
-66.92
-52.34
-39.32
-29.34
-23.06
-20.43
-20.95
-23.94
-28.58
-33.99
-39.20
-43.46
-46.33
-47.83
-48.36
-48.41
-48.37
-48.31
-48.09
-47.43
-46.21
-44.49
-42.57
-40.99
-40.41
-41.50
-44.54
-49.10
-53.82
-56.62
-55.32
-48.54
-36.35
-20.40
-3.34
12.14
24.13
31.91
35.74
36.35
34.52
30.82
25.74
19.83
13.72
8.04
3.18
-0.78
-3.95
-6.50
-8.51
-9.86
-10.46
-10.38
-9.97
-9.80
-10.57
-12.97
-17.44
-23.98
-31.86
-39.61
-45.12
-46.18
-41.20
-29.93
-13.67
4.98
22.98
37.73
47.72
52.63
53.02
49.79
43.83
35.92
26.82
17.36
8.39
0.62
-5.63
-10.42
-14.14
-17.23
-19.93
-22.29
-24.18
-25.58
-26.78
-28.41
-31.33
-36.36
-43.80
-53.17
-62.99
-70.99
-74.74
-72.40
-63.49
-49.12
-31.76
-14.43
0.15
10.32
15.59
16.46
13.85
8.77
2.01
-5.81
-14.13
-22.39
-30.07
-36.76
-42.29
-46.71
-50.25
-53.21
-55.88
-58.42
-60.86
-63.19
-65.40
-67.74
-70.69
-74.81
-80.42
-87.18
-93.88
-98.64
-99.44
-94.91
-84.84
-70.35
-53.44
-36.34
-20.77
-7.65
2.84
10.98
17.14
21.64
24.75
26.69
27.67
27.97
27.86
27.76
28.23
29.97
33.69
39.89
48.69
59.68
72.07
84.85
96.91
107.16
114.63
118.69
119.26
117.01
113.25
109.58
107.20
106.46
106.76
106.86
105.58
102.41
97.68
92.30
87.12
82.42
77.70
72.05
64.58
54.97
43.61
31.41
19.38
8.19
-2.00
-11.49
-20.63
-29.48
-37.72
-44.78
-50.30
-54.41
-57.82
-61.75
-67.42
-75.63
-86.25
-98.06
-108.93
-116.37
-118.39
-114.22
-104.68
-91.96
-78.84
-67.78
-60.14
-56.07
-54.88
-55.70
-57.97
-61.53
-66.37
-72.28
-78.64
-84.61
-89.44
-92.78
-94.75
-95.70
-95.85
-94.95
-92.37
-87.31
-79.34
-68.77
-56.72
-44.83
-34.72
-27.40
-22.89
-20.29
-18.02
-14.33
-7.77
2.45
16.32
33.12
51.52
69.86
86.43
99.81
109.09
114.04
114.99
112.70
108.04
101.79
94.53
86.74
78.85
71.22
64.11
57.59
51.53
45.75
40.15
34.78
29.82
25.37
21.33
17.39
13.04
7.81
1.50
-5.71
-13.11
-19.56
-23.66
-24.16
-20.36
-12.40
-1.31
11.29
23.78
35.00
44.45
52.18
58.42
63.24
66.48
68.00
67.94
66.92
65.80
65.37
65.88
66.94
67.70
67.44
65.93
63.62
61.36
59.91
59.52
59.72
59.54
57.91
54.03
47.64
39.08
29.28
19.63
11.82
7.56
8.09
13.70
23.50
35.57
47.52
57.26
63.61
66.43
66.34
64.20
60.70
56.33
51.52
46.87
43.24
41.40
41.72
43.92
47.13
50.30
52.74
54.41
55.84
57.79
60.77
64.71
69.01
72.78
75.29
76.23
76.02
75.74
76.99
81.42
90.22
103.64
120.76
139.67
158.01
173.64
185.19
192.15
194.77
193.68
189.60
183.17
174.87
164.93
153.31
139.69
123.63
104.82
83.40
60.10
36.16
13.04
-7.98
-26.10
-41.14
-53.48
-63.77
-72.74
-80.96
-88.68
-95.95
-102.59
-108.36
-112.91
-115.93
-117.08
-116.21
-113.40
-109.01
-103.61
-97.80
-92.02
-86.46
-81.10
-75.91
-70.87
-66.14
-61.94
-58.47
-55.83
-53.96
-52.60
-51.43
-50.09
-48.31
-46.02
-43.37
-40.68
-38.32
-36.59
-35.58
-35.21
-35.26
-35.52
-35.85
-36.22
-36.66
-37.26
-38.12
-39.35
-41.06
-43.40
-46.44
-50.19
-54.49
-59.03
-63.42
-67.23
-70.06
-71.58
-71.50
-69.57
-65.61
-59.54
-51.55
-42.10
-31.90
-21.71
-12.20
-3.72
3.64
9.98
15.35
19.63
22.47
23.38
21.92
17.89
11.55
3.54
-5.20
-13.67
-21.11
-27.10
-31.61
-34.83
-37.03
-38.46
-39.35
-39.89
-40.32
-40.89
-41.74
-42.89
-44.15
-45.26
-46.00
-46.31
-46.35
-46.37
-46.59
-47.11
-47.85
-48.60
-49.09
-49.16
-48.77
-48.07
-47.35
-46.89
-46.90
-47.32
-47.85
-48.00
-47.24
-45.20
-41.83
-37.42
-32.55
-27.89
-23.97
-21.14
-19.43
-18.72
-18.81
-19.47
-20.48
-21.61
-22.61
-23.25
-23.36
-22.95
-22.16
-21.19
-20.22
-19.33
-18.48
-17.60
-16.69
-15.86
-15.30
-15.22
-15.75
-16.93
-18.64
-20.59
-22.33
-23.31
-22.98
-20.96
-17.11
-11.65
-5.12
1.73
8.14
13.57
17.76
20.84
23.11
24.96
26.60
28.13
29.47
30.56
31.40
32.09
32.80
33.63
34.59
35.58
36.43
36.96
37.05
36.62
35.56
33.72
30.91
26.96
21.86
15.81
9.29
2.88
-2.86
-7.64
-11.45
-14.47
-16.91
-18.88
-20.36
-21.31
-21.85
-22.26
-22.98
-24.42
-26.76
-29.92
-33.60
-37.44
-41.13
-44.55
-47.68
-50.55
-53.11
-55.22
-56.70
-57.39
-57.20
-56.19
-54.51
-52.35
-49.83
-46.95
-43.43
-38.83
-32.55
-24.21
-13.84
-2.04
10.06
21.14
30.06
36.23
39.75
41.31
41.79
42.02
42.54
43.59
45.21
47.38
50.10
53.48
57.66
62.80
68.96
75.94
83.18
89.73
94.39
95.95
93.56
86.94
76.61
63.85
50.52
38.63
29.71
24.09
20.66
17.18
11.00
0.17
-15.98
-36.64
-59.98
-83.66
-105.28
-122.78
-134.54
-139.65
-138.28
-131.61
-121.44
-109.43
-96.57
-83.42
-70.77
-60.31
-54.59
-55.99
-65.41
-81.45
-100.79
-119.66
-135.47
-147.73
-157.64
-166.71
-175.59
-183.73
-190.23
-195.23
-200.51
-208.82
-222.11
-239.80
-258.27
-271.89
-275.27
-265.40
-242.60
-209.88
-171.33
-130.59
-90.28
-52.38
-19.08
6.84
22.57
26.54
19.47
4.61
-13.16
-29.04
-39.82
-44.62
-44.54
-41.51
-36.99
-31.38
-24.18
-14.74
-3.04
9.99
22.82
34.01
42.82
49.39
54.59
59.48
64.80
70.52
75.90
79.81
81.31
80.17
77.08
73.39
70.54
69.42
70.04
71.66
73.25
73.89
72.89
69.72
63.84
54.86
43.11
30.04
18.41
11.67
12.99
24.15
44.84
72.66
103.73
133.75
159.03
177.25
187.72
191.14
189.07
183.24
175.10
165.57
155.28
144.64
134.14
124.21
115.03
106.39
97.73
88.46
78.16
66.71
54.13
40.40
25.41
9.20
-7.61
-23.61
-36.74
-44.90
-46.77
-42.42
-33.38
-22.05
-10.93
-1.75
4.87
9.19
11.88
13.48
14.11
13.56
11.65
8.52
4.78
1.37
-0.86
-1.50
-0.75
0.71
1.98
2.36
1.41
-1.09
-5.33
-11.48
-19.45
-28.52
-37.13
-43.06
-44.06
-38.72
-27.10
-10.80
7.58
25.30
40.24
51.39
58.65
62.48
63.47
62.10
58.73
53.71
47.48
40.56
33.43
26.48
19.94
13.96
8.61
4.00
0.25
-2.64
-4.78
-6.46
-8.00
-9.57
-10.96
-11.42
-9.67
-4.24
6.08
21.73
42.01
65.13
88.69
110.33
128.40
142.23
151.99
158.18
161.17
161.01
157.54
150.82
141.46
130.65
119.94
110.63
103.38
98.02
93.70
89.24
83.56
75.87
65.75
53.19
38.61
22.98
7.87
-4.74
-12.87
-15.12
-11.24
-2.31
9.55
21.80
32.25
39.64
43.72
45.01
44.33
42.43
39.72
36.38
32.47
28.07
23.39
18.74
14.44
10.77
7.90
5.90
4.64
3.88
3.22
2.13
0.05
-3.48
-8.52
-14.53
-20.31
-24.20
-24.55
-20.33
-11.56
0.60
14.19
27.08
37.60
44.88
48.91
50.23
49.50
47.23
43.70
39.07
33.54
27.49
21.47
16.02
11.53
8.09
5.51
3.42
1.45
-0.70
-3.24
-6.41
-10.44
-15.46
-21.25
-27.06
-31.60
-33.37
-31.16
-24.58
-14.29
-1.84
10.77
21.75
29.90
34.83
36.78
36.34
34.13
30.63
26.18
21.08
15.63
10.19
5.19
0.95
-2.32
-4.60
-6.06
-7.00
-7.76
-8.75
-10.34
-12.91
-16.71
-21.81
-27.83
-33.90
-38.67
-40.68
-38.80
-32.65
-22.87
-10.99
1.09
11.64
19.56
24.52
26.82
27.04
25.76
23.39
20.19
16.31
11.91
7.21
2.46
-2.06
-6.07
-9.38
-11.90
-13.72
-15.06
-16.31
-17.89
-20.24
-23.72
-28.50
-34.33
-40.42
-45.49
-47.97
-46.57
-40.74
-31.04
-19.05
-6.94
3.28
10.36
14.12
15.26
14.91
14.10
13.42
12.91
12.27
11.06
8.93
5.72
1.52
-3.34
-8.30
-12.70
-15.90
-17.51
-17.49
-16.31
-14.85
-14.29
-15.81
-20.26
-27.76
-37.50
-47.71
-56.07
-60.35
-59.11
-52.17
-40.75
-27.00
-13.42
-2.10
5.81
10.25
12.06
12.54
12.90
13.89
15.63
17.81
20.06
22.14
24.13
26.19
28.32
30.28
31.63
31.99
31.24
29.45
26.75
23.03
17.96
11.11
2.47
-7.34
-16.94
-24.64
-28.95
-29.20
-25.69
-19.57
-12.37
-5.50
0.06
3.88
5.83
6.00
4.51
1.56
-2.57
-7.49
-12.71
-17.74
-22.12
-25.49
-27.59
-28.36
-27.91
-26.55
-24.69
-22.82
-21.37
-20.73
-21.19
-22.97
-26.14
-30.42
-35.11
-39.03
-40.77
-39.09
-33.35
-23.80
-11.47
2.09
15.32
26.97
36.22
42.64
46.08
46.58
44.38
40.03
34.31
28.12
22.25
17.23
13.23
10.17
7.77
5.69
3.56
1.06
-2.03
-5.72
-9.80
-13.95
-17.98
-22.03
-26.52
-31.91
-38.22
-44.77
-50.14
-52.63
-50.96
-44.77
-34.88
-22.98
-11.01
-0.61
7.25
12.28
14.60
14.52
12.39
8.64
3.80
-1.46
-6.48
-10.76
-14.08
-16.56
-18.44
-19.84
-20.65
-20.52
-19.01
-15.91
-11.44
-6.27
-1.40
2.21
3.99
3.99
3.00
2.39
3.80
8.58
17.41
30.07
45.46
61.99
77.97
91.98
102.92
110.01
112.62
110.35
103.29
92.22
78.60
64.20
50.46
38.05
26.68
15.56
4.00
-8.06
-19.90
-30.34
-38.37
-43.56
-46.30
-47.53
-48.41
-49.91
-52.56
-56.40
-60.89
-65.06
-67.63
-67.36
-63.42
-55.70
-44.90
-32.36
-19.68
-8.28
0.86
7.36
11.24
12.78
12.34
10.34
7.22
3.50
-0.32
-3.86
-6.94
-9.55
-11.81
-13.82
-15.59
-17.02
-18.02
-18.56
-18.69
-18.57
-18.37
-18.25
-18.28
-18.38
-18.36
-17.83
-16.31
-13.28
-8.38
-1.55
6.81
15.95
24.90
32.73
38.82
42.90
45.05
45.52
44.62
42.52
39.37
35.23
30.22
24.55
18.58
12.75
7.59
3.60
1.13
0.30
0.91
2.43
4.18
5.43
5.54
4.04
0.64
-4.59
-11.16
-18.03
-23.78
-26.98
-26.79
-23.33
-17.73
-11.80
-7.35
-5.60
-6.87
-10.76
-16.47
-23.23
-30.51
-37.96
-45.24
-51.92
-57.42
-61.17
-62.85
-62.48
-60.52
-57.75
-55.03
-53.00
-52.01
-52.08
-53.17
-55.40
-59.14
-64.78
-72.29
-80.70
-88.05
-91.79
-89.72
-80.98
-66.60
-49.05
-31.07
-14.33
1.27
17.19
35.13
55.82
78.51
101.45
122.75
140.81
154.01
160.24
156.93
142.21
116.51
83.62
50.03
22.59
5.61
-0.96
-1.30
-1.34
-5.90
-16.73
-32.19
-48.61
-62.19
-70.38
-72.32
-68.54
-60.30
-49.16
-36.73
-24.62
-14.36
-7.42
-4.90
-7.26
-14.17
-24.45
-36.30
-47.69
-56.94
-63.08
-66.08
-66.65
-65.81
-64.39
-62.73
-60.62
-57.64
-53.56
-48.77
-44.23
-41.18
-40.48
-42.14
-45.04
-47.24
-46.64
-41.81
-32.55
-19.99
-6.11
6.97
17.68
25.35
30.15
32.71
33.71
33.58
32.54
30.72
28.35
25.81
23.52
21.81
20.68
19.88
18.91
17.34
14.92
11.66
7.67
3.07
-2.19
-8.21
-14.99
-22.19
-29.13
-34.95
-39.06
-41.45
-42.71
-43.71
-45.12
-47.02
-48.92
-50.01
-49.63
-47.53
-43.86
-38.97
-33.04
-25.98
-17.44
-7.04
5.39
19.62
34.86
49.85
63.02
72.93
78.67
80.14
78.16
74.13
69.66
66.12
64.33
64.46
66.08
68.32
70.19
70.82
69.70
66.62
61.65
55.03
47.07
38.23
29.10
20.25
12.10
4.69
-2.36
-9.56
-17.19
-25.00
-32.16
-37.58
-40.33
-40.07
-37.07
-32.11
-26.16
-20.20
-15.14
-11.71
-10.36
-11.03
-12.89
-14.44
-13.81
-9.48
-0.96
10.93
24.24
36.55
45.62
49.90
48.63
41.77
29.98
14.62
-2.24
-18.26
-31.37
-40.48
-45.75
-48.37
-49.88
-51.35
-53.03
-54.49
-55.15
-54.82
-53.87
-53.04
-53.00
-53.95
-55.43
-56.42
-55.57
-51.69
-44.07
-32.79
-18.77
-3.51
11.29
24.22
34.47
41.89
46.78
49.62
50.80
50.59
49.12
46.59
43.27
39.52
35.70
32.05
28.67
25.57
22.73
20.13
17.77
15.64
13.56
11.21
8.09
3.83
-1.59
-7.53
-12.73
-15.62
-14.87
-9.89
-1.17
9.86
21.32
31.49
39.14
43.83
45.69
45.23
43.04
39.65
35.50
30.89
26.03
21.11
16.31
11.84
7.91
4.69
2.23
0.46
-0.84
-1.93
-3.13
-4.75
-7.10
-10.47
-14.97
-20.36
-25.87
-30.24
-32.01
-29.96
-23.70
-13.85
-1.98
9.98
20.33
28.05
32.96
35.44
36.10
35.41
33.68
31.07
27.73
23.84
19.66
15.42
11.33
7.53
4.13
1.23
-1.16
-3.07
-4.63
-6.05
-7.58
-9.57
-12.36
-16.22
-21.11
-26.52
-31.39
-34.33
-34.05
-29.85
-22.01
-11.76
-0.85
8.98
16.63
21.78
24.75
26.14
26.40
25.72
24.09
21.46
17.98
13.96
9.83
5.98
2.68
0.04
-1.91
-3.17
-3.81
-3.97
-3.89
-3.90
-4.38
-5.73
-8.27
-12.09
-16.89
-21.85
-25.72
-27.06
-24.76
-18.49
-8.85
2.80
14.81
25.81
35.03
42.29
47.80
51.78
54.36
55.53
55.33
54.00
51.96
49.81
48.17
47.53
48.13
49.97
52.72
55.89
58.77
60.66
60.90
59.16
55.43
50.10
43.74
36.88
29.86
22.84
15.98
9.53
3.80
-0.98
-4.94
-8.50
-12.21
-16.33
-20.62
-24.37
-26.84
-27.79
-27.71
-27.69
-28.87
-31.93
-36.72
-42.43
-48.08
-52.92
-56.75
-59.85
-62.65
-65.45
-68.28
-71.00
-73.53
-76.06
-79.03
-83.00
-88.32
-94.84
-101.73
-107.53
-110.45
-108.84
-101.78
-89.36
-72.79
-53.93
-34.85
-17.16
-1.83
10.82
20.82
28.30
33.37
36.11
36.76
35.72
33.52
30.68
27.61
24.52
21.50
18.60
15.80
13.13
10.55
8.02
5.44
2.66
-0.55
-4.50
-9.44
-15.38
-21.91
-28.07
-32.51
-33.93
-31.50
-25.28
-16.19
-5.66
4.76
13.97
21.44
27.10
31.12
33.65
34.75
34.51
33.08
30.82
28.14
25.42
22.80
20.25
17.57
14.69
11.71
8.88
6.52
4.75
3.41
2.09
0.21
-2.74
-7.08
-12.80
-19.51
-26.37
-32.16
-35.56
-35.42
-31.26
-23.46
-13.19
-2.04
8.49
17.44
24.43
29.55
32.99
34.88
35.20
34.04
31.62
28.44
25.04
21.91
19.26
17.02
14.92
12.71
10.33
7.92
5.80
4.21
3.21
2.53
1.66
-0.03
-3.05
-7.59
-13.43
-19.84
-25.73
-29.85
-31.05
-28.66
-22.68
-13.87
-3.55
6.86
16.18
23.75
29.45
33.44
35.93
37.02
36.68
34.90
31.89
28.09
24.11
20.52
17.60
15.32
13.37
11.36
9.04
6.40
3.67
1.19
-0.77
-2.16
-3.26
-4.60
-6.82
-10.43
-15.51
-21.54
-27.41
-31.69
-33.11
-30.94
-25.30
-17.03
-7.38
2.42
11.46
19.25
25.58
30.37
33.56
35.09
35.04
33.69
31.55
29.24
27.30
26.02
25.41
25.14
24.75
23.84
22.24
20.04
17.55
15.10
12.87
10.71
8.28
5.09
0.79
-4.66
-10.85
-16.93
-21.80
-24.34
-23.80
-19.97
-13.37
-5.01
3.84
12.04
18.77
23.65
26.54
27.43
26.38
23.54
19.23
14.04
8.67
3.83
-0.01
-2.68
-4.33
-5.31
-6.03
-6.84
-8.01
-9.60
-11.55
-13.63
-15.68
-17.66
-19.78
-22.45
-26.03
-30.52
-35.36
-39.43
-41.44
-40.35
-35.90
-28.69
-19.98
-11.25
-3.71
1.99
5.70
7.58
7.89
6.83
4.58
1.46
-2.08
-5.52
-8.38
-10.45
-11.77
-12.56
-13.15
-13.81
-14.65
-15.67
-16.78
-17.85
-18.88
-19.97
-21.40
-23.49
-26.48
-30.36
-34.71
-38.71
-41.22
-41.20
-37.96
-31.49
-22.50
-12.26
-2.20
6.43
12.90
17.05
19.11
19.51
18.65
16.80
14.18
11.05
7.79
4.82
2.50
0.99
0.15
-0.34
-0.85
-1.60
-2.58
-3.60
-4.44
-5.00
-5.39
-5.98
-7.25
-9.65
-13.32
-17.91
-22.52
-25.81
-26.37
-23.25
-16.35
-6.63
4.17
14.09
21.59
26.04
27.69
27.48
26.48
25.44
24.62
23.72
22.09
18.99
13.81
6.38
-2.89
-13.02
-22.74
-31.04
-37.59
-43.04
-48.72
-56.04
-65.65
-77.06
-88.51
-97.49
-101.31
-97.78
-85.69
-65.30
-38.66
-9.62
16.85
36.05
45.15
44.33
36.61
26.48
17.89
12.86
11.21
11.60
12.93
15.13
18.88
24.58
31.34
36.79
38.11
33.40
22.85
8.67
-5.93
-18.18
-26.84
-32.40
-36.22
-39.50
-42.37
-43.79
-42.06
-35.76
-24.41
-8.73
9.67
28.87
47.24
63.60
77.22
87.64
94.53
97.74
97.44
94.29
89.47
84.39
80.35
78.13
77.79
78.74
80.03
80.73
80.16
78.07
74.56
70.04
65.02
60.01
55.30
50.91
46.50
41.51
35.37
27.77
18.84
9.23
-0.09
-8.06
-13.88
-17.11
-17.77
-16.15
-12.62
-7.54
-1.25
5.91
13.36
20.37
26.06
29.70
30.93
29.91
27.25
23.80
20.33
17.32
14.85
12.72
10.67
8.49
6.17
3.81
1.54
-0.50
-2.32
-4.08
-6.04
-8.58
-12.12
-16.96
-23.14
-30.25
-37.45
-43.50
-47.13
-47.46
-44.33
-38.43
-30.97
-23.24
-16.05
-9.60
-3.63
2.25
8.22
14.18
19.94
25.42
30.82
36.32
41.98
47.62
53.00
58.17
63.54
69.74
77.13
85.54
94.20
102.18
108.98
114.90
120.87
127.97
136.76
147.07
158.23
169.56
180.89
192.57
205.05
218.33
231.63
243.43
251.79
254.89
251.37
240.46
222.07
196.76
165.70
130.43
92.60
53.58
14.32
-24.57
-62.51
-98.78
-132.47
-162.91
-190.11
-214.91
-238.92
-263.87
-291.09
-321.18
-353.88
-388.14
-422.10
-453.21
-478.66
-496.24
-505.20
-506.87
-504.30
-501.05
-499.69
-500.76
-502.69
-502.88
-499.20
-491.09
-479.64
-466.57
-452.85
-437.79
-419.08
-393.86
-360.24
-318.45
-270.94
-221.45
-173.46
-128.71
-86.83
-45.94
-3.96
40.24
86.39
133.25
179.28
223.25
264.28
301.52
333.83
359.72
377.69
386.81
387.15
379.90
367.14
351.40
335.11
320.12
307.31
296.55
286.90
277.17
266.41
254.38
241.53
228.63
216.37
204.95
194.01
182.81
170.56
156.60
140.66
122.84
103.65
83.90
64.58
46.69
30.95
17.62
6.36
-3.56
-13.10
-22.99
-33.51
-44.36
-54.81
-64.01
-71.31
-76.61
-80.29
-83.09
-85.70
-88.45
-91.25
-93.68
-95.30
-95.83
-95.29
-94.00
-92.45
-91.16
-90.57
-90.97
-92.49
-95.01
-98.11
-101.05
-102.72
-101.86
-97.36
-88.68
-76.15
-61.01
-45.10
-30.33
-18.19
-9.44
-4.17
-2.10
-2.86
-6.21
-11.98
-19.82
-29.04
-38.64
-47.39
-54.18
-58.31
-59.62
-58.61
-56.26
-53.87
-52.75
-54.04
-58.35
-65.53
-74.29
-82.26
-86.45
-84.09
-73.74
-55.89
-32.91
-8.20
14.96
34.42
49.32
59.68
65.60
66.86
63.03
54.09
41.00
25.78
11.07
-0.71
-8.01
-10.35
-8.15
-2.34
5.99
15.74
25.80
35.23
43.29
49.66
54.48
58.23
61.44
64.33
66.71
68.04
67.78
65.73
62.21
58.01
54.04
51.03
49.24
48.55
48.61
49.21
50.46
52.74
56.57
62.42
70.64
81.43
94.65
109.66
125.08
138.80
148.46
152.10
148.82
139.05
124.23
106.25
86.74
66.92
47.71
30.14
15.39
4.60
-1.69
-3.84
-3.07
-0.95
1.24
2.86
4.00
4.97
5.85
6.23
5.18
1.67
-5.07
-15.18
-28.05
-42.45
-56.77
-69.42
-79.18
-85.44
-88.31
-88.38
-86.44
-83.25
-79.33
-75.11
-71.03
-67.51
-64.82
-62.74
-60.37
-56.25
-48.79
-36.92
-20.61
-1.04
19.76
39.51
56.32
69.06
77.34
81.30
81.40
78.20
72.43
65.05
57.15
49.76
43.58
38.70
34.75
31.13
27.34
23.22
18.93
14.67
10.34
5.49
-0.53
-8.10
-16.97
-26.17
-34.27
-39.93
-42.50
-42.16
-39.76
-36.42
-32.99
-29.87
-27.12
-24.75
-22.98
-22.27
-23.04
-25.38
-28.88
-32.66
-35.63
-36.83
-35.62
-31.67
-24.90
-15.36
-3.26
10.91
26.28
41.63
55.60
67.14
75.80
81.92
86.41
90.30
94.25
98.28
101.76
103.81
103.82
101.84
98.63
95.34
93.04
92.26
92.85
94.13
95.33
95.85
95.48
94.35
92.67
90.68
88.43
85.79
82.45
77.87
71.38
62.20
49.65
33.42
13.79
-8.26
-31.09
-52.71
-71.14
-84.82
-92.86
-95.27
-92.83
-86.94
-79.20
-71.00
-63.25
-56.26
-49.87
-43.67
-37.34
-30.80
-24.33
-18.40
-13.57
-10.23
-8.58
-8.55
-9.94
-12.47
-15.83
-19.77
-24.05
-28.45
-32.72
-36.57
-39.72
-41.89
-42.84
-42.37
-40.46
-37.19
-32.87
-27.92
-22.89
-18.38
-14.98
-13.27
-13.68
-16.44
-21.45
-28.25
-36.04
-43.87
-50.92
-56.78
-61.59
-65.95
-70.68
-76.30
-82.77
-89.44
-95.22
-99.10
-100.56
-99.83
-97.76
-95.53
-94.16
-94.15
-95.37
-97.15
-98.58
-98.82
-97.61
-95.34
-93.16
-92.58
-95.09
-101.54
-111.77
-124.44
-137.35
-147.97
-154.23
-155.14
-150.94
-142.93
-132.82
-122.09
-111.70
-101.95
-92.98
-85.01
-78.67
-74.76
-73.94
-76.43
-81.82
-89.16
-97.17
-104.34
-109.07
-109.82
-105.27
-94.67
-78.13
-56.84
-32.83
-8.62
13.49
31.98
46.52
57.88
67.66
77.59
88.97
102.22
116.80
131.51
144.96
155.98
163.90
168.47
169.76
167.97
163.41
156.48
147.56
136.99
124.84
111.00
95.41
78.50
61.49
46.31
35.09
29.37
29.56
34.64
42.53
50.77
57.23
60.67
60.80
58.10
53.40
47.53
41.09
34.44
27.78
21.30
15.24
9.86
5.34
1.69
-1.13
-3.28
-4.93
-6.33
-7.91
-10.36
-14.54
-21.23
-30.65
-42.07
-53.72
-63.16
-67.96
-66.62
-59.15
-47.09
-33.02
-19.67
-9.07
-2.07
1.56
2.78
2.68
2.12
1.56
1.17
0.95
0.86
0.84
0.83
0.83
0.91
1.17
1.76
2.72
3.90
4.95
5.39
4.71
2.47
-1.44
-6.60
-11.86
-15.41
-15.09
-9.11
3.18
20.83
41.40
61.62
78.44
89.99
95.85
96.88
94.50
90.05
84.46
78.23
71.68
65.13
58.94
53.37
48.57
44.45
40.83
37.51
34.31
31.09
27.64
23.65
18.73
12.48
4.71
-4.30
-13.62
-21.74
-26.83
-27.29
-22.33
-12.42
0.78
14.91
27.64
37.29
43.18
45.46
44.78
41.89
37.41
31.84
25.63
19.30
13.34
8.19
4.06
0.94
-1.42
-3.37
-5.28
-7.37
-9.76
-12.45
-15.48
-19.03
-23.34
-28.46
-33.88
-38.44
-40.42
-38.17
-30.78
-18.60
-3.25
12.89
27.47
38.84
46.36
50.29
51.30
50.15
47.46
43.67
39.17
34.32
29.48
25.01
21.13
17.97
15.52
13.66
12.18
10.83
9.29
7.23
4.29
0.11
-5.56
-12.61
-20.38
-27.58
-32.44
-33.35
-29.36
-20.67
-8.64
4.63
17.04
27.02
33.91
37.76
39.10
38.50
36.43
33.25
29.28
24.91
20.54
16.56
13.16
10.38
8.11
6.17
4.40
2.71
1.06
-0.59
-2.38
-4.59
-7.60
-11.70
-16.74
-21.93
-25.72
-26.23
-21.83
-11.82
3.17
21.30
40.05
57.05
70.73
80.54
86.81
90.26
91.64
91.50
90.24
88.26
86.01
83.97
82.49
81.67
81.34
81.16
80.69
79.51
77.21
73.41
67.71
59.75
49.33
36.50
21.78
6.25
-8.45
-20.37
-27.72
-29.43
-25.54
-17.33
-6.85
3.66
12.48
18.72
22.31
23.63
23.20
21.49
18.84
15.59
12.02
8.32
4.56
0.70
-3.37
-7.63
-12.00
-16.33
-20.57
-24.86
-29.51
-34.92
-41.53
-49.59
-59.08
-69.53
-79.91
-88.69
-94.11
-94.71
-89.87
-80.04
-66.73
-52.03
-37.98
-26.00
-16.69
-9.90
-5.09
-1.70
0.67
2.15
2.79
2.64
1.91
0.91
-0.04
-0.73
-1.11
-1.27
-1.36
-1.48
-1.68
-1.99
-2.56
-3.72
-5.90
-9.38
-14.02
-19.09
-23.36
-25.38
-24.03
-18.96
-10.73
-0.72
9.39
18.11
24.55
28.47
30.21
30.30
29.29
27.57
25.40
23.01
20.62
18.47
16.74
15.53
14.83
14.52
14.48
14.61
14.87
15.23
15.57
15.64
15.03
13.31
10.27
6.13
1.66
-2.00
-3.68
-2.69
0.94
6.36
12.23
17.17
20.21
20.93
19.43
16.05
11.17
5.11
-1.93
-9.66
-17.73
-25.69
-33.09
-39.61
-45.01
-49.19
-52.03
-53.43
-53.34
-51.80
-49.05
-45.50
-41.67
-38.08
-35.17
-33.12
-31.81
-30.68
-28.89
-25.51
-19.85
-11.81
-2.07
8.16
17.45
24.68
29.35
31.62
32.02
31.13
29.38
26.99
24.10
20.94
17.82
15.08
12.92
11.35
10.21
9.32
8.58
8.01
7.58
7.15
6.32
4.55
1.30
-3.74
-10.47
-18.30
-26.18
-32.77
-36.79
-37.35
-34.32
-28.43
-21.00
-13.55
-7.26
-2.67
0.39
2.46
4.14
5.82
7.61
9.53
11.61
14.10
17.36
21.74
27.48
34.59
42.85
51.90
61.30
70.57
79.15
86.43
91.70
94.34
93.92
90.40
84.19
76.22
67.71
59.95
53.98
50.38
49.16
49.79
51.41
52.93
53.36
51.90
48.09
41.91
33.71
24.23
14.36
4.96
-3.38
-10.48
-16.45
-21.67
-26.51
-31.32
-36.31
-41.71
-47.71
-54.55
-62.38
-71.34
-81.50
-92.98
-105.97
-120.55
-136.48
-152.75
-167.58
-178.70
-183.96
-182.16
-173.42
-159.24
-141.83
-123.41
-105.60
-89.31
-74.84
-62.33
-51.83
-43.42
-36.94
-31.97
-27.90
-24.23
-20.77
-17.78
-15.78
-15.20
-16.15
-18.26
-20.82
-23.20
-25.05
-26.50
-28.02
-30.20
-33.42
-37.70
-42.67
-47.57
-51.43
-53.28
-52.42
-48.62
-42.29
-34.34
-25.96
-18.21
-11.74
-6.71
-2.90
0.07
2.64
5.23
8.21
11.91
16.44
21.59
26.82
31.39
34.72
36.65
37.52
38.05
38.93
40.53
42.63
44.52
45.27
43.99
40.22
34.10
26.53
19.00
13.29
10.94
12.77
18.55
26.99
36.16
44.11
49.38
51.36
50.15
46.34
40.64
33.67
25.92
17.79
9.73
2.16
-4.53
-10.09
-14.48
-17.79
-20.21
-21.90
-22.95
-23.47
-23.60
-23.61
-23.90
-25.01
-27.45
-31.44
-36.66
-42.09
-46.18
-47.22
-44.02
-36.41
-25.41
-12.92
-1.01
8.70
15.54
19.68
21.82
22.64
22.53
21.61
19.91
17.62
15.17
13.08
11.79
11.44
11.83
12.62
13.45
14.15
14.72
15.28
15.79
15.99
15.39
13.39
9.53
3.89
-2.82
-9.23
-13.64
-14.60
-11.36
-4.21
5.60
16.31
26.15
33.85
38.72
40.66
39.90
36.83
31.96
25.85
19.12
12.38
6.15
0.67
-4.01
-8.01
-11.51
-14.66
-17.50
-20.04
-22.29
-24.35
-26.38
-28.59
-31.13
-34.04
-37.12
-39.83
-41.30
-40.44
-36.27
-28.23
-16.56
-2.30
12.91
27.29
39.42
48.50
54.42
57.55
58.41
57.60
55.60
52.89
49.87
46.82
43.85
40.84
37.60
34.00
30.01
25.79
21.56
17.43
13.34
8.98
3.89
-2.43
-10.32
-19.76
-30.21
-40.53
-49.14
-54.43
-55.27
-51.51
-44.08
-34.70
-25.35
-17.56
-12.03
-8.63
-6.69
-5.47
-4.42
-3.26
-1.90
-0.28
1.63
3.82
6.17
8.48
10.52
12.20
13.55
14.71
15.80
16.80
17.55
17.68
16.81
14.60
11.05
6.64
2.40
-0.27
0.06
4.27
12.31
23.16
35.05
46.06
54.60
59.78
61.40
59.78
55.46
49.05
41.19
32.54
23.82
15.74
8.93
3.80
0.49
-1.19
-1.71
-1.63
-1.45
-1.41
-1.51
-1.60
-1.68
-1.98
-2.97
-4.98
-7.86
-10.76
-12.16
-10.51
-4.77
5.07
17.91
31.94
45.25
56.35
64.44
69.30
71.05
69.92
66.16
60.13
52.36
43.56
34.54
26.01
18.46
12.08
6.80
2.39
-1.47
-5.07
-8.65
-12.40
-16.45
-21.02
-26.27
-32.30
-38.93
-45.55
-51.10
-54.26
-53.91
-49.50
-41.42
-30.90
-19.74
-9.70
-2.11
2.44
4.07
3.38
1.15
-1.95
-5.47
-9.20
-13.04
-16.88
-20.57
-23.83
-26.46
-28.33
-29.48
-30.02
-30.15
-30.04
-29.93
-30.15
-31.14
-33.29
-36.66
-40.75
-44.38
-45.97
-44.07
-37.87
-27.66
-14.79
-1.24
10.98
20.34
26.17
28.59
28.25
26.04
22.76
19.04
15.28
11.68
8.25
4.91
1.52
-1.99
-5.55
-8.92
-11.74
-13.65
-14.47
-14.31
-13.64
-13.16
-13.71
-15.87
-19.74
-24.78
-29.82
-33.37
-34.06
-31.14
-24.73
-15.81
-5.90
3.39
10.84
15.82
18.36
18.93
18.16
16.64
14.78
12.78
10.71
8.59
6.44
4.30
2.26
0.39
-1.26
-2.67
-3.88
-4.95
-5.99
-7.17
-8.79
-11.23
-14.84
-19.66
-25.30
-30.75
-34.61
-35.49
-32.55
-25.92
-16.74
-6.77
2.19
8.89
12.95
14.68
14.77
13.83
12.27
10.23
7.83
5.23
2.65
0.31
-1.66
-3.27
-4.54
-5.44
-5.89
-5.78
-5.11
-4.04
-2.88
-2.12
-2.25
-3.71
-6.60
-10.58
-14.74
-17.69
-18.01
-14.73
-7.74
2.08
13.10
23.57
32.09
37.95
41.14
42.01
41.04
38.67
35.32
31.47
27.62
24.22
21.46
19.26
17.25
15.06
12.52
9.69
6.87
4.33
2.20
0.35
-1.56
-3.98
-7.36
-11.95
-17.73
-24.13
-30.10
-34.24
-35.23
-32.33
-25.72
-16.48
-6.27
3.27
11.00
16.44
19.67
21.03
20.83
19.28
16.59
13.09
9.30
5.80
3.05
1.20
0.05
-0.80
-1.81
-3.18
-4.89
-6.69
-8.30
-9.60
-10.72
-12.05
-14.10
-17.31
-21.80
-27.13
-32.29
-35.87
-36.44
-33.07
-25.73
-15.38
-3.64
7.71
17.31
24.51
29.29
32.00
33.02
32.59
30.90
28.20
24.93
21.64
18.77
16.52
14.68
12.87
10.72
8.14
5.34
2.76
0.74
-0.62
-1.61
-2.76
-4.67
-7.77
-12.20
-17.68
-23.49
-28.52
-31.53
-31.45
-27.81
-20.96
-12.01
-2.47
6.19
12.93
17.27
19.17
18.82
16.45
12.42
7.25
1.64
-3.66
-8.05
-11.30
-13.56
-15.20
-16.60
-17.95
-19.27
-20.38
-21.14
-21.46
-21.41
-21.17
-21.04
-21.40
-22.67
-25.12
-28.68
-32.73
-36.07
-37.22
-34.90
-28.58
-18.76
-6.81
5.48
16.56
25.52
32.17
36.79
39.77
41.36
41.60
40.56
38.46
35.75
32.95
30.46
28.41
26.58
24.60
22.13
19.07
15.56
11.86
8.18
4.47
0.44
-4.37
-10.35
-17.61
-25.83
-34.21
-41.56
-46.54
-48.01
-45.44
-39.15
-30.29
-20.48
-11.33
-3.92
1.39
4.87
7.09
8.59
9.66
10.45
11.03
11.60
12.39
13.61
15.30
17.27
19.16
20.57
21.22
21.08
20.37
19.44
18.53
17.69
16.66
14.99
12.23
8.14
2.86
-3.01
-8.50
-12.46
-13.87
-12.14
-7.37
-0.32
7.79
15.71
22.52
27.84
31.75
34.54
36.40
37.28
36.98
35.35
32.51
28.90
25.11
21.65
18.76
16.29
13.85
11.05
7.67
3.78
-0.35
-4.45
-8.38
-12.23
-16.22
-20.67
-25.82
-31.71
-38.04
-44.10
-48.80
-50.95
-49.60
-44.43
-35.98
-25.48
-14.48
-4.37
3.98
10.27
14.57
17.10
18.00
17.43
15.67
13.20
10.68
8.74
7.79
7.84
8.53
9.29
9.57
9.13
8.04
6.73
5.67
5.16
5.15
5.12
4.32
2.01
-2.23
-8.24
-15.17
-21.71
-26.38
-27.98
-26.02
-20.84
-13.52
-5.51
1.87
7.83
12.18
15.21
17.32
18.75
19.54
19.59
18.90
17.68
16.27
14.97
13.83
12.66
11.13
9.01
6.32
3.37
0.60
-1.64
-3.23
-4.35
-5.40
-6.83
-9.08
-12.42
-16.91
-22.28
-27.85
-32.56
-35.20
-34.73
-30.72
-23.58
-14.40
-4.63
4.39
11.78
17.19
20.65
22.32
22.35
20.88
18.12
14.46
10.46
6.68
3.58
1.31
-0.27
-1.56
-2.96
-4.73
-6.83
-8.95
-10.66
-11.67
-12.03
-12.20
-12.85
-14.61
-17.73
-21.91
-26.29
-29.64
-30.67
-28.44
-22.57
-13.28
-1.25
12.73
27.99
44.11
60.85
77.92
94.78
110.72
125.00
137.21
147.43
156.23
164.42
172.61
180.83
188.40
193.99
196.01
193.12
184.70
171.09
153.52
133.71
113.33
93.63
75.29
58.51
43.41
30.40
20.49
15.47
17.71
29.54
52.21
84.68
123.05
160.87
190.71
206.18
203.84
183.79
149.05
104.14
53.64
1.48
-49.03
-94.94
-133.61
-163.28
-183.69
-196.32
-203.89
-209.28
-214.38
-219.60
-224.12
-226.64
-226.34
-223.37
-218.80
-214.17
-210.90
-209.91
-211.44
-214.98
-219.28
-222.41
-222.10
-216.32
-204.04
-185.78
-163.59
-140.45
-119.23
-101.74
-88.47
-78.81
-71.73
-66.46
-62.55
-59.75
-57.62
-55.36
-52.06
-47.09
-40.43
-32.69
-24.77
-17.42
-10.85
-4.73
1.62
8.72
16.65
24.88
32.38
38.13
41.56
43.08
44.16
47.10
54.33
67.64
87.42
112.38
139.85
166.58
189.69
207.31
218.75
224.28
224.57
220.37
212.32
200.96
186.81
170.34
152.03
132.28
111.57
90.64
70.50
52.32
37.08
25.13
16.05
8.76
1.91
-5.63
-14.55
-25.05
-37.04
-50.35
-64.83
-80.31
-96.47
-112.70
-128.12
-141.67
-152.28
-159.11
-161.74
-160.32
-155.54
-148.64
-141.20
-134.83
-130.85
-129.97
-132.27
-137.34
-144.58
-153.44
-163.56
-174.63
-186.12
-197.17
-206.49
-212.69
-214.54
-211.47
-203.70
-192.31
-178.95
-165.64
-154.30
-146.23
-141.50
-138.51
-134.17
-124.60
-106.55
-78.56
-41.70
0.81
44.67
85.81
121.32
149.64
170.19
182.90
188.11
186.62
179.92
170.06
159.16
148.79
139.59
131.21
122.77
113.41
102.79
91.25
79.67
69.09
60.24
53.30
47.70
42.36
36.10
28.18
18.79
9.09
0.97
-3.63
-3.49
1.36
9.61
19.06
27.36
32.73
34.34
32.30
27.20
19.82
10.80
0.67
-10.06
-20.81
-30.98
-40.13
-48.14
-55.22
-61.80
-68.31
-74.93
-81.50
-87.63
-92.99
-97.50
-101.50
-105.71
-110.90
-117.58
-125.63
-134.08
-141.24
-145.06
-143.76
-136.47
-123.59
-106.72
-88.19
-70.38
-55.04
-43.06
-34.49
-28.93
-25.85
-24.75
-25.10
-26.24
-27.23
-27.02
-24.70
-19.77
-12.32
-2.91
7.55
18.17
28.17
36.96
44.12
49.27
52.01
51.98
48.98
43.11
34.95
25.72
17.16
11.34
10.13
14.62
24.71
39.01
55.23
70.89
84.00
93.48
99.21
101.69
101.64
99.70
96.36
91.97
86.85
81.28
75.45
69.47
63.33
57.06
50.78
44.82
39.60
35.46
32.51
30.44
28.60
26.15
22.37
16.92
10.08
2.92
-2.80
-5.08
-2.21
6.55
20.60
38.07
56.40
73.16
86.78
96.81
103.67
108.09
110.62
111.33
109.98
106.36
100.51
92.90
84.24
75.32
66.84
59.36
53.35
49.31
47.75
49.05
53.23
59.77
67.48
74.75
79.90
81.74
80.02
75.68
70.71
67.66
68.86
75.63
87.81
103.73
120.79
136.26
148.07
155.23
157.84
156.73
153.02
147.71
141.58
135.08
128.44
121.69
114.70
107.26
99.25
90.74
82.09
73.96
67.14
62.30
59.70
59.00
59.25
59.17
57.56
53.79
48.02
41.18
34.67
29.92
27.91
28.93
32.43
37.24
41.87
44.99
45.71
43.76
39.40
33.17
25.65
17.31
8.51
-0.41
-9.09
-17.17
-24.39
-30.66
-36.00
-40.44
-43.97
-46.54
-48.11
-48.67
-48.31
-47.10
-45.11
-42.39
-39.06
-35.27
-31.14
-26.61
-21.46
-15.48
-8.75
-1.96
3.71
6.93
6.85
3.47
-2.32
-9.19
-15.92
-21.90
-27.15
-32.02
-36.75
-41.27
-45.27
-48.44
-50.79
-52.73
-54.91
-57.94
-62.21
-67.77
-74.47
-82.10
-90.51
-99.59
-109.17
-118.91
-128.32
-136.82
-143.85
-149.03
-152.19
-153.49
-153.38
-152.53
-151.55
-150.71
-149.65
-147.34
-142.37
-133.60
-120.82
-104.93
-87.83
-71.58
-57.63
-46.33
-36.97
-28.30
-18.82
-7.16
7.62
25.69
45.82
65.23
79.94
86.06
81.32
66.28
44.18
19.67
-3.13
-22.07
-37.23
-49.98
-61.54
-72.09
-80.72
-86.24
-88.12
-86.88
-83.90
-80.68
-78.26
-76.78
-75.78
-74.70
-73.38
-72.25
-72.12
-73.70
-77.13
-81.77
-86.46
-90.09
-92.11
-92.83
-93.19
-94.38
-97.20
-101.77
-107.48
-113.25
-117.89
-120.53
-120.83
-118.97
-115.59
-111.45
-107.12
-102.72
-97.76
-91.40
-82.81
-71.64
-58.30
-43.82
-29.52
-16.58
-5.78
2.49
7.98
10.51
9.89
6.15
-0.27
-8.58
-17.79
-27.01
-35.77
-43.95
-51.70
-59.14
-66.32
-73.22
-79.88
-86.50
-93.43
-101.08
-109.88
-120.22
-132.30
-145.94
-160.10
-172.73
-180.87
-181.20
-171.05
-149.19
-116.26
-74.56
-27.33
22.04
70.57
116.01
156.72
191.67
220.31
242.67
259.16
270.52
277.44
280.35
279.44
274.76
266.53
255.34
242.12
227.95
213.70
199.67
185.39
169.71
151.09
128.22
100.47
68.35
33.50
-1.79
-35.26
-65.46
-92.19
-116.43
-139.81
-163.72
-188.70
-214.09
-238.15
-258.47
-272.54
-278.27
-274.49
-261.22
-239.72
-212.19
-181.22
-148.99
-116.71
-84.47
-51.48
-16.70
20.56
60.19
101.18
141.76
179.73
212.87
239.34
257.98
268.58
271.89
269.58
263.91
257.21
251.48
247.85
246.50
246.54
246.25
243.44
235.89
221.89
200.74
173.05
140.71
106.48
73.34
43.69
18.95
-0.61
-15.52
-26.59
-34.54
-39.75
-42.36
-42.54
-40.66
-37.42
-33.74
-30.59
-28.86
-29.19
-31.96
-37.18
-44.33
-52.17
-58.81
-62.03
-59.98
-51.87
-38.42
-21.69
-4.41
10.91
22.65
30.19
33.65
33.47
30.16
24.27
16.55
7.92
-0.66
-8.56
-15.68
-22.29
-28.80
-35.34
-41.66
-47.16
-51.23
-53.55
-54.28
-54.15
-54.23
-55.80
-59.93
-67.16
-77.05
-88.00
-97.47
-102.58
-101.04
-91.95
-76.20
-56.15
-34.87
-15.16
1.13
13.30
21.51
26.30
28.25
27.80
25.43
21.74
17.49
13.46
10.17
7.81
6.20
5.02
3.99
3.08
2.44
2.21
2.32
2.31
1.32
-1.65
-7.31
-15.61
-25.38
-34.36
-39.68
-38.82
-30.48
-15.20
4.73
26.04
45.57
61.13
71.94
78.32
81.07
80.98
78.51
74.00
67.87
60.81
53.62
46.97
41.17
36.12
31.52
27.12
22.94
19.23
16.30
14.25
12.83
11.42
9.15
5.22
-0.81
-8.63
-17.02
-23.92
-26.92
-24.02
-14.49
0.77
19.32
38.03
53.97
65.29
71.45
72.99
70.95
66.39
60.20
53.08
45.69
38.65
32.40
27.12
22.62
18.57
14.61
10.62
6.67
3.01
-0.22
-3.13
-6.21
-10.19
-15.93
-24.14
-34.99
-47.78
-60.76
-71.33
-76.65
-74.60
-64.60
-47.96
-27.49
-6.49
12.27
27.30
38.37
45.98
50.64
52.45
51.13
46.41
38.44
27.85
15.70
3.03
-9.36
-20.96
-31.50
-40.71
-48.27
-53.87
-57.41
-59.19
-59.97
-60.84
-62.83
-66.40
-70.99
-74.86
-75.52
-70.56
-58.55
-39.79
-16.30
8.75
32.08
51.23
65.02
73.47
77.30
77.40
74.60
69.53
62.83
55.16
47.13
39.24
31.74
24.69
18.10
12.02
6.57
1.91
-1.90
-5.05
-8.00
-11.48
-16.32
-23.18
-32.15
-42.43
-52.21
-58.98
-60.27
-54.56
-41.95
-24.29
-4.63
13.83
28.68
38.82
44.40
46.30
45.55
42.95
39.03
34.10
28.47
22.49
16.49
10.74
5.37
0.49
-3.84
-7.48
-10.31
-12.28
-13.55
-14.49
-15.71
-17.97
-21.99
-28.23
-36.49
-45.68
-53.77
-58.26
-56.86
-48.44
-33.56
-14.43
5.78
23.96
38.01
47.17
51.83
52.96
51.54
48.26
43.59
37.93
31.78
25.70
20.11
15.22
10.97
7.17
3.64
0.38
-2.51
-4.93
-6.93
-8.84
-11.23
-14.82
-20.26
-27.76
-36.74
-45.69
-52.33
-54.22
-49.61
-38.22
-21.56
-2.46
15.87
30.88
41.33
47.32
49.72
49.52
47.39
43.69
38.67
32.75
26.52
20.57
15.29
10.72
6.66
2.88
-0.70
-3.93
-6.56
-8.47
-9.81
-11.15
-13.33
-17.21
-23.36
-31.62
-40.95
-49.43
-54.69
-54.59
-47.99
-35.25
-18.20
0.38
17.66
31.51
40.99
46.20
47.90
46.95
43.99
39.46
33.75
27.36
20.91
14.95
9.81
5.43
1.47
-2.41
-6.32
-10.06
-13.18
-15.36
-16.65
-17.64
-19.34
-22.83
-28.84
-37.26
-46.92
-55.67
-60.83
-60.04
-52.08
-37.51
-18.52
1.69
19.99
34.18
43.46
48.20
49.29
47.63
43.85
38.39
31.77
24.74
18.08
12.35
7.67
3.75
0.16
-3.35
-6.71
-9.55
-11.54
-12.67
-13.39
-14.52
-17.03
-21.70
-28.88
-38.13
-48.07
-56.44
-60.61
-58.38
-48.89
-33.19
-14.02
5.07
20.97
31.96
37.96
40.07
39.66
37.73
34.65
30.46
25.28
19.53
13.81
8.63
4.16
0.23
-3.47
-7.13
-10.64
-13.70
-16.05
-17.65
-18.88
-20.51
-23.46
-28.55
-36.09
-45.48
-55.04
-62.26
-64.49
-59.81
-47.95
-30.43
-10.20
9.45
25.90
37.82
45.19
48.82
49.63
48.34
45.34
40.95
35.56
29.73
24.03
18.85
14.36
10.49
7.09
4.05
1.40
-0.76
-2.37
-3.62
-4.96
-7.17
-11.11
-17.44
-26.18
-36.38
-46.06
-52.60
-53.58
-47.60
-34.95
-17.62
1.44
19.23
33.64
43.86
50.14
53.23
53.87
52.48
49.34
44.79
39.40
33.84
28.68
24.18
20.27
16.74
13.41
10.32
7.68
5.74
4.57
3.93
3.27
1.76
-1.48
-7.20
-15.57
-25.92
-36.50
-44.73
-47.92
-44.18
-33.26
-16.79
2.28
20.72
36.02
47.10
54.07
57.72
58.77
57.61
54.35
49.23
42.81
35.95
29.44
23.71
18.68
14.04
9.47
4.99
0.94
-2.21
-4.22
-5.22
-5.79
-6.77
-9.07
-13.38
-19.95
-28.29
-37.03
-44.00
-46.69
-43.09
-32.43
-15.71
4.60
25.38
43.92
58.66
69.30
76.35
80.40
81.75
80.38
76.38
70.31
63.18
56.21
50.23
45.46
41.50
37.75
33.85
29.95
26.67
24.74
24.57
25.93
27.92
29.15
28.14
23.74
15.54
4.08
-9.12
-21.88
-31.96
-37.68
-38.56
-35.36
-29.90
-24.22
-19.87
-17.42
-16.44
-15.91
-14.81
-12.55
-9.07
-4.77
-0.22
4.00
7.41
9.62
10.39
9.71
7.81
5.08
1.94
-1.36
-4.79
-8.52
-12.78
-17.89
-24.25
-32.35
-42.69
-55.47
-70.34
-86.44
-102.57
-117.66
-131.12
-142.87
-153.03
-161.65
-168.36
-172.62
-173.96
-172.29
-167.94
-161.29
-152.48
-141.06
-126.21
-107.20
-83.90
-57.15
-28.63
-0.51
25.06
46.47
62.80
73.85
79.99
81.91
80.47
76.50
70.77
64.07
57.43
52.34
50.70
54.45
64.83
81.71
103.35
126.86
149.12
167.86
182.11
192.10
198.53
201.91
202.12
198.65
191.12
179.75
165.40
149.30
132.57
115.92
99.64
83.83
68.79
55.10
43.59
35.02
29.70
27.24
26.61
26.40
25.37
22.96
19.62
16.77
16.23
19.51
27.02
37.70
49.34
59.29
65.40
66.65
63.20
55.99
46.16
34.57
21.81
8.38
-5.07
-17.72
-28.77
-37.66
-44.20
-48.68
-51.73
-54.28
-57.54
-62.84
-71.37
-83.87
-100.19
-119.37
-139.87
-160.18
-179.22
-196.47
-211.65
-224.35
-233.87
-239.45
-240.87
-238.82
-235.03
-231.72
-230.79
-233.06
-237.89
-243.50
-247.72
-248.78
-245.97
-239.85
-232.04
-224.64
-219.53
-217.75
-219.16
-222.32
-224.96
-224.49
-218.77
-206.57
-187.97
-164.23
-137.52
-110.51
-85.70
-64.85
-48.50
-35.73
-24.37
-11.71
4.53
25.36
50.07
76.46
101.58
122.74
138.28
147.85
152.23
152.75
150.80
147.39
143.03
137.94
132.16
125.79
119.09
112.43
106.18
100.63
95.88
91.84
88.21
84.49
79.99
73.90
65.41
54.12
40.38
25.61
12.15
2.75
-0.39
3.64
14.03
28.53
44.30
58.79
70.36
78.34
82.74
83.74
81.50
76.09
67.73
56.86
44.19
30.47
16.41
2.58
-10.57
-22.64
-33.30
-42.35
-49.82
-55.90
-60.81
-64.74
-67.75
-69.86
-71.09
-71.37
-70.41
-67.50
-61.64
-51.77
-37.33
-18.64
2.92
25.24
46.04
63.60
77.14
86.78
93.24
97.36
99.75
100.74
100.43
98.93
96.43
93.28
89.81
86.27
82.68
78.85
74.52
69.44
63.50
56.68
48.96
40.17
29.99
18.18
4.96
-8.59
-20.55
-28.55
-30.62
-25.97
-15.48
-1.38
13.56
27.03
37.88
46.09
52.32
57.24
61.15
64.01
65.79
66.75
67.48
68.63
70.70
73.87
78.22
83.94
91.34
100.73
112.04
124.58
137.06
147.86
155.47
158.77
157.32
151.40
142.07
131.11
120.73
113.19
110.03
111.57
116.60
122.68
126.97
127.20
122.33
112.74
99.82
85.31
70.75
57.14
44.97
34.44
25.54
18.12
11.83
6.07
0.09
-6.70
-14.51
-22.99
-31.31
-38.52
-43.89
-47.14
-48.47
-48.42
-47.49
-45.98
-43.84
-40.80
-36.67
-31.50
-25.70
-19.86
-14.51
-9.90
-5.99
-2.56
0.58
3.38
5.64
7.15
7.83
7.76
7.12
5.97
4.26
1.97
-0.78
-3.58
-5.85
-7.14
-7.29
-6.59
-5.65
-5.12
-5.43
-6.63
-8.38
-10.11
-11.21
-11.26
-10.16
-8.22
-5.97
-4.03
-2.74
-2.08
-1.73
-1.42
-1.12
-1.13
-2.02
-4.19
-7.74
-12.32
-17.31
-22.04
-26.05
-29.09
-31.23
-32.72
-33.96
-35.47
-37.74
-41.14
-45.77
-51.44
-57.66
-63.75
-68.99
-72.72
-74.56
-74.35
-72.25
-68.71
-64.30
-59.75
-55.74
-52.85
-51.44
-51.55
-52.87
-54.84
-56.83
-58.37
-59.29
-59.74
-60.04
-60.44
-61.01
-61.62
-62.09
-62.34
-62.46
-62.60
-62.86
-63.20
-63.51
-63.71
-63.93
-64.40
-65.37
-66.78
-68.25
-69.10
-68.70
-66.76
-63.45
-59.33
-55.14
-51.45
-48.59
-46.71
-45.86
-46.09
-47.42
-49.77
-52.89
-56.42
-60.03
-63.55
-67.09
-70.88
-75.19
-80.14
-85.59
-91.20
-96.55
-101.35
-105.51
-109.31
-113.22
-117.74
-123.09
-129.02
-134.78
-139.33
-141.71
-141.40
-138.58
-133.98
-128.71
-123.79
-119.82
-116.89
-114.63
-112.48
-109.97
-106.95
-103.69
-100.79
-98.96
-98.72
-100.19
-103.02
-106.35
-109.09
-110.18
-108.93
-105.21
-99.62
-93.37
-88.01
-84.86
-84.41
-85.78
-86.76
-84.17
-74.91
-56.78
-29.21
6.60
47.93
91.12
132.17
167.43
194.25
211.43
219.44
220.15
216.12
209.73
202.49
194.84
186.53
177.23
166.98
156.23
145.60
135.39
125.43
115.07
103.52
90.10
74.47
56.71
37.31
17.17
-2.36
-19.60
-32.71
-40.15
-41.09
-35.76
-25.51
-12.43
1.15
13.26
22.71
29.17
32.97
34.78
35.25
34.76
33.43
31.24
28.20
24.58
20.87
17.76
15.85
15.54
16.88
19.58
23.11
26.88
30.35
33.09
34.85
35.61
35.81
36.33
38.46
43.59
52.70
65.97
82.65
101.18
119.71
136.65
150.97
162.23
170.45
175.81
178.57
179.07
177.87
175.76
173.54
171.84
170.85
170.36
169.81
168.55
166.09
162.27
157.47
152.67
149.13
147.91
149.08
151.15
151.26
145.99
132.73
110.86
82.06
49.63
17.06
-13.30
-40.77
-66.02
-90.10
-113.52
-135.94
-156.49
-174.40
-189.52
-202.33
-213.70
-224.44
-234.81
-244.46
-252.46
-257.59
-258.75
-255.27
-247.22
-235.43
-221.26
-206.23
-191.66
-178.41
-166.78
-156.51
-146.87
-136.67
-124.43
-108.71
-88.60
-64.16
-36.52
-7.60
20.48
46.06
68.24
86.86
102.19
114.72
125.03
133.93
142.45
151.68
162.44
174.82
188.08
200.79
211.25
218.08
220.60
218.86
213.47
205.06
193.86
179.36
160.52
136.35
106.74
73.08
38.20
5.64
-21.52
-41.85
-55.95
-66.06
-74.94
-84.77
-96.65
-110.51
-125.63
-140.86
-154.63
-164.81
-168.82
-164.21
-149.61
-125.56
-94.53
-60.26
-26.43
4.33
30.93
53.52
72.61
88.59
101.39
110.83
116.98
120.28
121.45
121.11
119.54
116.70
112.51
107.14
101.14
95.31
90.34
86.48
83.18
79.29
73.33
64.17
51.48
36.00
19.26
2.97
-11.66
-24.43
-35.96
-47.30
-59.08
-71.16
-82.74
-92.86
-101.11
-108.01
-114.84
-123.24
-134.52
-149.23
-166.86
-185.82
-203.69
-217.67
-225.28
-225.03
-216.93
-202.41
-183.84
-163.68
-143.74
-124.90
-107.23
-90.55
-74.77
-60.12
-47.00
-35.76
-26.52
-19.21
-13.70
-9.91
-7.78
-7.17
-7.76
-8.99
-10.17
-10.60
-9.87
-8.01
-5.50
-3.05
-1.21
0.11
1.89
5.67
13.05
24.80
40.38
57.96
74.97
88.94
98.33
102.70
102.56
98.90
92.75
85.04
76.55
68.02
60.10
53.34
48.02
44.22
41.84
40.67
40.40
40.63
40.91
40.79
39.93
38.13
35.37
31.84
27.93
24.43
22.48
23.45
28.53
38.24
52.16
68.95
86.77
103.82
118.86
131.30
141.13
148.60
154.08
157.94
160.65
162.76
164.84
167.30
170.29
173.62
176.95
179.98
182.60
184.87
186.86
188.41
188.90
187.31
182.35
172.86
158.13
138.19
113.81
86.34
57.34
28.11
-0.62
-28.87
-57.16
-86.07
-115.62
-144.94
-172.22
-195.15
-211.63
-220.48
-221.95
-217.69
-210.32
-202.58
-196.49
-192.75
-190.77
-189.02
-185.85
-180.13
-171.56
-160.62
-148.10
-134.83
-121.47
-108.54
-96.38
-85.02
-73.95
-61.96
-47.38
-28.60
-4.89
23.05
53.09
82.22
107.55
127.19
140.66
148.61
152.24
152.52
149.95
144.71
137.06
127.59
117.17
106.56
96.02
85.15
73.17
59.44
43.91
27.22
10.45
-5.33
-19.54
-32.19
-43.67
-54.22
-63.43
-69.96
-71.84
-67.12
-54.89
-35.94
-12.93
10.27
29.71
42.42
47.08
43.88
34.05
19.36
1.85
-16.09
-31.72
-42.49
-46.71
-44.40
-37.39
-28.75
-21.68
-18.44
-19.73
-25.05
-33.40
-44.04
-56.90
-72.30
-90.33
-110.10
-129.42
-144.94
-152.97
-150.62
-136.93
-113.41
-83.70
-52.46
-23.92
-0.72
16.36
28.00
35.34
39.27
40.12
37.96
33.16
26.56
19.39
12.77
7.36
3.41
1.06
0.66
2.87
8.14
15.93
24.31
30.18
30.38
22.99
8.40
-10.62
-29.82
-44.69
-51.79
-49.63
-38.98
-22.75
-5.36
8.38
14.90
13.58
7.76
4.07
9.90
29.88
63.09
102.70
138.57
161.45
166.78
156.00
134.93
110.32
86.60
64.60
42.61
18.66
-7.61
-34.67
-60.31
-83.40
-104.78
-126.90
-152.37
-182.11
-214.27
-244.32
-266.45
-275.46
-268.53
-246.12
-211.69
-170.82
-129.81
-94.38
-68.77
-55.09
-53.12
-60.53
-73.49
-87.67
-99.32
-106.10
-107.21
-103.16
-95.05
-84.04
-71.14
-57.36
-43.90
-32.13
-23.34
-18.36
-17.25
-19.20
-22.70
-25.93
-27.28
-25.73
-21.03
-13.68
-4.64
5.08
14.69
23.73
32.02
39.40
45.61
50.24
52.95
53.72
53.02
51.76
50.94
51.22
52.66
54.69
56.43
57.12
56.46
54.69
52.41
50.16
48.17
46.15
43.56
39.84
34.84
29.01
23.37
19.25
17.81
19.69
24.73
32.05
40.35
48.30
54.92
59.71
62.62
63.88
63.83
62.73
60.82
58.21
55.00
51.17
46.71
41.61
35.99
30.12
24.39
19.15
14.60
10.71
7.24
3.85
0.16
-4.14
-9.22
-14.97
-20.87
-25.95
-28.94
-28.64
-24.39
-16.43
-5.82
5.95
17.48
27.95
37.17
45.32
52.51
58.52
62.86
65.03
64.91
62.93
60.01
57.29
55.77
56.13
58.54
62.74
68.16
74.11
79.85
84.65
87.68
88.05
84.92
77.90
67.41
54.91
42.76
33.66
30.02
33.30
43.70
60.12
80.27
101.18
119.61
132.72
138.74
137.26
129.32
116.94
102.47
87.99
74.90
63.85
54.76
47.07
39.85
32.11
23.02
12.18
-0.31
-13.95
-28.16
-42.51
-56.90
-71.44
-86.21
-100.96
-114.90
-126.72
-134.75
-137.28
-133.07
-121.79
-104.35
-82.81
-59.98
-38.68
-21.02
-7.93
0.83
6.28
9.69
12.07
13.97
15.46
16.27
16.04
14.37
11.00
5.86
-0.87
-8.83
-17.59
-26.79
-36.10
-45.14
-53.40
-60.29
-65.29
-68.10
-68.75
-67.42
-64.21
-58.94
-51.23
-40.79
-27.80
-13.13
1.76
15.23
25.94
33.26
37.34
38.95
39.15
38.80
38.38
37.91
37.14
35.74
33.58
30.82
27.76
24.76
22.02
19.56
17.31
15.19
13.18
11.25
9.17
6.45
2.54
-2.85
-9.48
-16.47
-22.73
-27.43
-30.37
-31.93
-32.73
-33.16
-33.21
-32.66
-31.42
-29.85
-28.66
-28.48
-29.47
-31.18
-32.84
-33.78
-33.72
-32.66
-30.73
-27.89
-24.09
-19.40
-14.30
-9.55
-5.92
-3.96
-3.91
-5.84
-9.82
-15.93
-24.06
-33.64
-43.51
-52.00
-57.40
-58.36
-54.27
-45.53
-33.47
-20.16
-7.85
1.48
6.68
7.57
4.75
-0.88
-8.37
-16.88
-25.56
-33.47
-39.69
-43.75
-45.84
-46.76
-47.46
-48.53
-49.90
-51.01
-51.17
-49.96
-47.22
-42.78
-36.23
-26.96
-14.56
0.69
17.64
34.59
49.88
62.57
72.66
80.86
88.08
94.87
101.35
107.24
112.18
115.94
118.42
119.49
118.92
116.41
111.65
104.57
95.32
84.27
71.86
58.50
44.44
29.88
14.92
-0.34
-15.69
-30.77
-45.00
-57.60
-67.83
-75.11
-79.25
-80.40
-79.01
-75.59
-70.56
-64.16
-56.49
-47.63
-37.73
-27.09
-16.14
-5.41
4.47
12.80
18.84
21.89
21.47
17.48
10.33
1.02
-9.06
-18.42
-25.94
-31.08
-33.96
-35.18
-35.40
-35.12
-34.55
-33.65
-32.22
-29.98
-26.47
-21.04
-12.86
-1.28
13.86
31.89
51.17
69.38
83.94
92.80
94.94
90.64
81.32
68.99
55.59
42.50
30.40
19.48
9.91
2.06
-3.47
-6.19
-6.03
-3.53
0.43
4.88
9.10
12.46
14.17
13.20
8.57
-0.13
-12.17
-25.66
-38.21
-47.89
-53.98
-57.06
-58.38
-59.06
-59.38
-58.90
-56.95
-53.13
-47.65
-40.99
-33.62
-25.69
-17.32
-8.96
-1.75
2.72
2.95
-1.77
-10.94
-23.03
-36.09
-48.49
-59.40
-68.78
-76.99
-84.36
-90.87
-96.17
-99.85
-101.73
-101.84
-100.15
-96.31
-89.43
-78.44
-62.61
-42.06
-18.04
7.30
31.41
52.03
67.58
77.37
81.44
80.43
75.38
67.54
58.27
48.82
40.08
32.52
26.18
20.94
16.58
12.94
9.88
7.20
4.74
2.33
-0.16
-2.88
-5.98
-9.50
-13.24
-16.64
-18.78
-18.67
-15.66
-9.79
-1.89
6.68
14.46
20.38
23.94
25.28
24.96
23.75
22.46
21.56
21.06
20.35
18.40
14.25
7.52
-1.21
-10.53
-18.60
-23.85
-25.36
-23.13
-17.93
-11.18
-4.74
-0.69
-0.93
-6.65
-17.85
-33.09
-49.80
-65.13
-76.85
-84.09
-87.35
-88.03
-87.71
-87.57
-88.14
-89.48
-91.36
-93.35
-94.88
-95.11
-93.10
-88.08
-79.84
-68.85
-56.03
-42.18
-27.47
-11.42
6.53
26.39
47.23
67.38
85.14
99.31
109.26
114.46
114.22
108.01
96.31
81.29
66.36
54.71
47.60
43.77
40.59
36.25
31.50
29.55
34.07
46.47
64.33
82.18
94.03
96.27
89.07
75.69
60.37
46.17
34.11
23.71
14.20
5.66
-0.89
-4.26
-4.11
-1.57
1.01
1.17
-2.57
-9.92
-18.92
-26.68
-30.49
-28.84
-22.04
-12.26
-2.64
3.80
5.38
2.17
-4.23
-11.67
-18.55
-24.43
-29.92
-35.96
-43.10
-50.95
-58.45
-64.43
-68.30
-70.25
-71.12
-71.92
-73.26
-75.12
-76.88
-77.80
-77.54
-76.49
-75.60
-75.76
-77.04
-78.40
-77.95
-73.75
-64.67
-50.89
-33.79
-15.44
2.06
17.07
28.68
36.73
41.67
44.33
45.62
46.28
46.66
46.75
46.28
45.06
43.13
40.85
38.75
37.24
36.49
36.36
36.47
36.39
35.62
33.60
29.65
23.23
14.23
3.37
-7.68
-16.65
-21.43
-20.88
-15.28
-6.19
4.23
14.04
22.10
28.14
32.46
35.48
37.44
38.38
38.31
37.28
35.48
33.14
30.44
27.48
24.34
21.14
18.02
15.19
12.81
10.92
9.39
7.94
6.20
3.80
0.53
-3.52
-7.95
-11.98
-14.65
-15.03
-12.49
-6.98
0.91
10.06
19.09
26.75
32.21
35.15
35.75
34.53
32.12
29.13
26.01
23.00
20.11
17.09
13.37
8.17
0.75
-9.30
-21.66
-35.26
-48.59
-60.33
-69.89
-77.57
-84.23
-90.56
-96.55
-101.29
-103.50
-102.15
-97.00
-88.67
-78.22
-66.67
-54.69
-42.72
-31.11
-20.46
-11.49
-4.80
-0.60
1.49
2.31
2.89
4.03
6.16
9.14
12.39
15.07
16.36
15.71
13.07
8.90
4.03
-0.63
-4.36
-6.75
-7.73
-7.45
-6.16
-4.11
-1.44
1.90
6.31
12.49
21.19
32.77
46.73
61.51
74.92
84.77
89.75
89.80
86.07
80.42
74.90
71.35
71.17
74.90
81.70
89.07
93.14
90.01
77.48
56.43
30.94
6.72
-11.40
-21.55
-25.43
-26.86
-29.25
-33.45
-37.29
-36.94
-29.24
-13.58
7.85
31.12
52.22
68.17
77.20
78.33
71.28
56.76
37.13
16.51
-0.09
-8.56
-7.36
1.95
15.47
28.84
38.79
43.96
44.44
40.79
33.45
22.74
9.42
-4.87
-17.85
-27.42
-32.62
-34.12
-33.82
-33.93
-35.73
-38.96
-42.02
-42.72
-39.47
-32.00
-21.44
-9.88
0.59
8.55
13.63
16.34
17.53
17.82
17.24
15.42
11.98
7.02
1.33
-3.94
-7.76
-9.82
-10.73
-11.64
-13.63
-17.15
-21.77
-26.58
-30.75
-34.06
-36.95
-40.24
-44.48
-49.42
-53.95
-56.38
-55.04
-49.01
-38.36
-24.18
-8.22
7.59
21.51
32.26
39.08
41.64
39.99
34.56
26.24
16.34
6.49
-1.77
-7.38
-10.08
-10.43
-9.57
-8.72
-8.80
-10.20
-12.79
-16.25
-20.28
-24.89
-30.37
-37.05
-45.02
-53.73
-61.94
-67.85
-69.62
-65.91
-56.44
-42.11
-24.75
-6.61
10.33
24.66
35.74
43.49
48.14
50.09
49.74
47.58
44.11
39.94
35.69
31.95
29.19
27.65
27.30
27.83
28.71
29.37
29.34
28.37
26.41
23.55
19.95
15.73
11.04
6.04
0.95
-3.96
-8.35
-11.85
-14.07
-14.66
-13.40
-10.23
-5.24
1.30
9.04
17.52
26.17
34.34
41.29
46.39
49.24
49.82
48.51
45.99
42.95
39.94
37.21
34.70
32.17
29.32
25.93
21.98
17.63
13.16
8.86
4.92
1.31
-2.19
-5.92
-10.10
-14.67
-19.20
-23.00
-25.30
-25.56
-23.64
-19.75
-14.41
-8.27
-1.95
4.07
9.42
13.80
17.00
18.91
19.55
19.14
18.04
16.65
15.27
13.98
12.69
11.20
9.37
7.25
5.08
3.22
1.95
1.31
1.11
0.96
0.44
-0.78
-2.76
-5.20
-7.51
-8.85
-8.37
-5.40
0.34
8.76
19.35
31.35
43.85
55.88
66.57
75.15
81.08
84.09
84.24
81.87
77.53
71.84
65.34
58.40
51.22
43.83
36.28
28.67
21.24
14.31
8.13
2.73
-2.19
-7.16
-12.81
-19.57
-27.47
-36.09
-44.59
-51.92
-57.05
-59.18
-57.94
-53.47
-46.35
-37.48
-27.80
-18.15
-9.12
-1.13
5.46
10.25
12.87
13.18
11.39
8.12
4.23
0.54
-2.49
-4.85
-6.85
-8.83
-10.97
-13.17
-15.14
-16.65
-17.61
-18.17
-18.56
-19.02
-19.73
-20.77
-22.17
-23.95
-26.03
-28.22
-30.23
-31.68
-32.27
-31.88
-30.59
-28.67
-26.47
-24.33
-22.54
-21.34
-20.91
-21.37
-22.69
-24.69
-27.07
-29.42
-31.48
-33.12
-34.34
-35.27
-36.01
-36.63
-37.18
-37.82
-38.80
-40.41
-42.79
-45.90
-49.45
-53.05
-56.33
-59.01
-60.89
-61.76
-61.33
-59.26
-55.23
-49.04
-40.70
-30.44
-18.62
-5.69
7.96
21.95
35.95
49.61
62.47
74.06
83.88
91.50
96.63
99.09
98.89
96.20
91.49
85.59
79.46
73.98
69.57
65.92
62.08
56.75
48.88
38.17
25.47
12.43
0.87
-8.10
-14.47
-19.01
-22.49
-25.03
-25.96
-24.48
-20.47
-14.74
-8.67
-3.45
0.59
3.80
6.59
8.75
9.34
7.30
2.28
-5.00
-13.08
-20.55
-26.71
-31.72
-36.15
-40.51
-44.97
-49.39
-53.52
-57.13
-60.13
-62.71
-65.25
-68.17
-71.67
-75.37
-78.30
-79.15
-76.80
-70.79
-61.55
-50.07
-37.60
-25.17
-13.44
-2.83
6.30
13.60
18.70
21.38
21.77
20.29
17.65
14.66
12.06
10.33
9.58
9.57
9.90
10.20
10.24
9.86
8.78
6.51
2.47
-3.58
-11.22
-19.23
-25.92
-29.74
-29.70
-25.64
-18.00
-7.51
5.07
18.89
32.90
45.79
56.23
63.34
66.99
67.76
66.48
63.53
58.54
50.45
38.27
21.76
2.02
-18.65
-37.40
-51.81
-60.81
-64.90
-65.76
-65.38
-65.25
-65.96
-67.44
-69.45
-72.02
-75.41
-79.68
-84.16
-87.28
-86.94
-81.42
-70.18
-54.25
-35.93
-17.79
-1.80
11.25
21.64
30.08
37.07
42.57
46.10
47.26
46.14
43.35
39.75
36.04
32.44
28.78
24.81
20.52
16.19
12.22
8.88
6.20
3.97
1.90
-0.25
-2.78
-5.97
-10.05
-14.80
-19.42
-22.48
-22.46
-18.37
-10.20
1.16
14.50
28.81
43.61
58.69
73.58
87.32
98.57
106.20
109.92
110.52
109.51
108.45
108.23
108.66
108.58
106.20
99.62
87.22
68.02
42.08
10.93
-22.21
-52.78
-75.77
-87.27
-85.87
-73.38
-54.44
-35.00
-20.27
-13.12
-13.41
-18.52
-24.77
-28.86
-28.99
-25.10
-18.41
-10.66
-3.39
2.43
6.42
8.52
8.65
6.74
2.84
-2.43
-7.98
-12.48
-15.00
-15.40
-14.35
-12.91
-11.81
-11.13
-10.25
-8.44
-5.37
-1.47
2.03
3.48
1.37
-5.18
-15.99
-29.72
-44.07
-56.29
-63.93
-65.51
-60.91
-51.21
-38.25
-24.07
-10.34
1.71
11.44
18.56
23.05
24.99
24.60
22.22
18.39
13.87
9.49
5.89
3.33
1.54
-0.05
-2.02
-4.56
-7.36
-9.85
-11.51
-12.23
-12.33
-12.45
-13.27
-15.31
-18.76
-23.43
-28.68
-33.37
-36.07
-35.40
-30.56
-21.67
-9.79
3.43
16.26
27.41
36.20
42.43
46.23
47.77
47.26
44.94
41.13
36.26
30.88
25.53
20.72
16.71
13.47
10.72
8.07
5.26
2.33
-0.39
-2.55
-4.03
-5.11
-6.45
-8.76
-12.64
-18.27
-25.39
-33.16
-40.33
-45.36
-46.82
-43.83
-36.38
-25.43
-12.56
0.50
12.42
22.48
30.49
36.56
40.77
43.14
43.68
42.59
40.25
37.17
33.76
30.15
26.20
21.65
16.37
10.59
4.88
-0.00
-3.50
-5.51
-6.40
-6.86
-7.52
-8.69
-10.26
-11.79
-12.70
-12.40
-10.40
-6.29
0.21
9.14
20.29
33.10
46.78
60.44
73.25
84.53
93.66
100.02
103.04
102.37
98.10
90.95
82.11
72.86
64.13
56.20
48.65
40.69
31.61
21.09
9.35
-2.98
-15.12
-26.34
-36.20
-44.52
-51.38
-57.03
-61.59
-64.89
-66.28
-64.79
-59.51
-50.05
-36.91
-21.51
-5.73
8.59
20.28
28.99
35.12
39.52
43.08
46.46
49.81
52.62
53.77
51.93
46.27
37.02
25.65
14.41
5.28
-0.87
-4.68
-7.76
-11.78
-17.62
-25.03
-33.04
-40.60
-47.11
-52.67
-57.70
-62.58
-67.30
-71.37
-73.94
-74.01
-70.85
-64.35
-55.26
-45.17
-36.06
-29.75
-27.23
-28.46
-32.62
-38.76
-46.44
-55.79
-66.94
-79.11
-90.10
-96.75
-96.25
-87.69
-72.82
-55.43
-39.55
-27.62
-19.60
-13.59
-7.40
-0.21
6.92
11.72
12.23
7.92
0.08
-8.87
-16.40
-20.67
-20.79
-16.67
-8.53
3.13
17.57
33.63
49.83
64.59
76.56
84.98
89.64
90.88
89.37
85.90
81.24
75.93
70.14
63.63
55.93
46.68
36.04
24.81
14.18
5.32
-1.14
-5.23
-7.58
-9.06
-10.55
-12.86
-16.67
-22.33
-29.64
-37.51
-44.05
-47.08
-44.98
-37.34
-25.22
-10.73
3.82
16.69
27.00
34.57
39.35
41.08
39.26
33.49
24.03
12.04
-0.58
-11.83
-20.24
-25.48
-28.25
-29.99
-32.14
-35.55
-40.22
-45.40
-50.05
-53.40
-55.26
-56.18
-57.20
-59.41
-63.36
-68.74
-74.28
-78.11
-78.43
-74.22
-65.62
-53.77
-40.32
-26.72
-13.86
-2.04
8.63
17.92
25.38
30.49
33.07
33.44
32.39
30.78
29.27
28.09
27.10
26.02
24.65
22.96
21.10
19.30
17.72
16.40
15.22
13.88
12.02
9.31
5.60
1.05
-3.91
-8.64
-12.43
-14.70
-15.08
-13.38
-9.62
-3.91
3.55
12.49
22.49
32.98
43.15
52.14
59.15
63.70
65.71
65.46
63.52
60.42
56.66
52.52
48.15
43.60
38.83
33.74
28.14
21.88
14.91
7.43
-0.16
-7.36
-13.86
-19.63
-24.92
-30.07
-35.12
-39.66
-42.86
-43.74
-41.66
-36.57
-29.11
-20.31
-11.22
-2.53
5.37
12.33
18.16
22.50
24.96
25.35
23.80
20.81
16.99
12.87
8.71
4.56
0.35
-3.90
-8.02
-11.79
-15.01
-17.67
-20.00
-22.39
-25.31
-29.15
-34.03
-39.64
-45.20
-49.64
-51.78
-50.77
-46.25
-38.54
-28.44
-17.00
-5.27
5.86
15.74
23.92
30.12
34.20
36.19
36.31
34.93
32.50
29.40
25.91
22.07
17.89
13.37
8.66
4.05
-0.10
-3.54
-6.21
-8.31
-10.21
-12.34
-15.14
-18.93
-23.84
-29.65
-35.71
-40.90
-43.92
-43.54
-39.13
-30.81
-19.50
-6.57
6.54
18.66
28.99
37.08
42.71
45.85
46.68
45.58
43.07
39.71
35.91
31.91
27.72
23.29
18.59
13.76
9.07
4.84
1.32
-1.40
-3.49
-5.36
-7.55
-10.65
-15.08
-20.90
-27.67
-34.34
-39.52
-41.73
-39.89
-33.73
-23.86
-11.60
1.44
13.87
24.78
33.74
40.68
45.57
48.44
49.30
48.34
45.94
42.64
38.92
35.10
31.23
27.21
22.90
18.32
13.69
9.35
5.62
2.67
0.43
-1.38
-3.22
-5.59
-8.93
-13.47
-19.11
-25.27
-30.95
-34.90
-36.02
-33.70
-28.05
-19.81
-10.04
0.19
10.10
19.29
27.53
34.68
40.52
44.85
47.54
48.71
48.73
48.06
47.06
45.94
44.63
42.99
40.92
38.52
36.08
34.01
32.60
31.96
31.84
31.70
30.75
28.17
23.29
15.90
6.45
-3.87
-13.40
-20.34
-23.33
-21.82
-16.20
-7.61
2.35
12.10
20.40
26.47
29.99
30.93
29.40
25.56
19.57
11.81
3.00
-5.76
-13.27
-18.62
-21.63
-22.91
-23.53
-24.44
-25.96
-27.62
-28.51
-27.91
-25.80
-23.01
-20.91
-20.85
-23.55
-28.77
-35.35
-41.46
-45.19
-45.02
-40.31
-31.38
-19.32
-5.66
8.15
20.96
31.98
40.74
46.96
50.52
51.57
50.42
47.64
43.83
39.52
35.09
30.72
26.33
21.60
16.07
9.28
1.01
-8.58
-18.99
-29.59
-39.90
-49.76
-59.27
-68.67
-78.07
-87.35
-96.11
-103.75
-109.40
-112.15
-111.09
-105.66
-95.99
-83.00
-68.29
-53.63
-40.42
-29.29
-20.20
-12.70
-6.40
-1.16
2.90
5.69
7.32
8.12
8.54
8.84
9.15
9.48
9.87
10.55
11.71
13.32
14.97
15.94
15.58
13.61
10.22
5.88
1.16
-3.55
-7.85
-11.07
-12.20
-10.04
-3.76
6.65
20.15
34.96
49.10
60.96
69.49
74.14
74.65
71.02
63.61
53.35
41.65
30.05
19.78
11.28
4.15
-2.40
-9.19
-16.45
-23.81
-30.50
-35.73
-39.04
-40.45
-40.36
-39.41
-38.45
-38.47
-40.53
-45.31
-52.49
-60.32
-65.71
-65.14
-56.01
-37.80
-12.42
16.36
44.21
67.68
84.96
95.98
101.81
104.04
104.21
103.50
102.71
102.21
101.99
101.88
101.65
101.26
100.91
100.89
101.49
102.62
103.66
103.42
100.30
92.72
79.53
60.52
36.52
9.42
-18.25
-43.68
-64.40
-78.65
-85.68
-85.88
-80.67
-72.14
-62.53
-53.69
-46.71
-41.91
-39.07
-37.90
-38.30
-40.40
-44.35
-50.01
-56.77
-63.69
-69.94
-75.15
-79.61
-83.99
-88.86
-94.29
-99.84
-104.87
-108.96
-112.09
-114.39
-115.87
-116.16
-114.75
-111.31
-105.89
-98.79
-90.09
-79.36
-65.82
-48.85
-28.70
-6.77
14.75
33.59
48.11
57.72
62.63
63.57
61.43
57.12
51.48
45.24
38.89
32.55
26.14
19.54
12.84
6.38
0.59
-4.26
-8.16
-11.43
-14.48
-17.72
-21.49
-26.13
-31.90
-38.74
-46.04
-52.39
-55.87
-54.67
-47.82
-35.71
-20.03
-3.22
12.35
25.08
34.37
40.43
43.95
45.59
45.82
44.86
42.79
39.65
35.48
30.40
24.56
18.21
11.72
5.55
0.24
-3.79
-6.36
-7.68
-8.35
-9.21
-11.25
-15.20
-21.38
-29.43
-38.24
-46.05
-50.82
-50.88
-45.44
-34.96
-21.03
-5.80
8.78
21.39
31.58
39.37
44.91
48.23
49.27
48.12
45.17
41.05
36.40
31.56
26.62
21.46
16.10
10.79
5.97
2.05
-0.82
-2.85
-4.54
-6.53
-9.36
-13.42
-18.83
-25.36
-32.29
-38.41
-42.15
-42.03
-37.14
-27.52
-14.26
0.81
15.71
28.85
39.30
46.79
51.44
53.49
53.18
50.77
46.67
41.41
35.59
29.74
24.22
19.16
14.58
10.49
6.94
4.04
1.90
0.48
-0.44
-1.29
-2.71
-5.38
-9.72
-15.60
-22.03
-27.25
-29.18
-26.10
-17.31
-3.44
13.82
32.35
50.26
66.36
80.25
91.97
101.74
109.64
115.62
119.54
121.34
121.02
118.69
114.53
108.85
102.12
94.88
87.72
80.99
74.63
68.11
60.55
51.02
38.85
23.78
5.94
-14.07
-35.25
-56.11
-74.72
-88.94
-96.84
-97.23
-89.96
-76.08
-57.56
-36.90
-16.72
0.66
13.55
21.14
23.71
22.33
18.38
12.94
6.43
-1.25
-10.30
-20.58
-31.57
-42.66
-53.57
-64.56
-76.25
-89.18
-103.49
-118.84
-134.89
-151.53
-168.97
-187.43
-206.64
-225.60
-242.64
-255.71
-262.74
-261.97
-252.18
-232.73
-203.68
-165.97
-121.51
-73.19
-24.46
21.25
61.27
94.13
119.71
138.89
152.87
162.32
166.85
165.32
156.85
141.96
123.18
104.48
89.83
81.49
79.12
80.13
80.99
78.92
73.14
64.79
55.84
47.89
41.68
37.63
36.48
39.63
48.28
62.23
79.09
94.89
105.85
110.32
109.40
106.00
103.01
101.83
102.39
104.09
106.67
110.26
114.66
118.67
120.45
118.68
113.43
106.09
98.12
89.81
79.87
66.28
47.76
24.57
-1.86
-30.04
-59.16
-88.77
-117.92
-144.41
-165.10
-176.92
-177.98
-168.21
-149.22
-123.67
-94.85
-66.30
-41.32
-22.44
-10.67
-5.28
-4.10
-4.55
-4.69
-3.86
-2.43
-1.09
-0.09
1.02
2.90
5.78
9.02
11.28
11.24
8.41
3.55
-1.69
-5.55
-7.05
-6.32
-4.42
-2.61
-1.70
-1.76
-2.25
-2.47
-1.92
-0.46
1.70
4.24
6.76
8.91
10.37
11.01
10.93
10.42
9.84
9.42
9.19
8.98
8.64
8.17
7.76
7.59
7.74
8.06
8.24
7.95
7.07
5.68
4.01
2.31
0.70
-0.78
-2.12
-3.19
-3.78
-3.65
-2.72
-1.17
