1478930812.00
64.000000
-0.00
-0.00
-0.00
-0.00
-0.00
-0.00
-0.00
-0.00
-0.00
-0.00
0.00
0.01
0.01
-0.00
-0.03
-0.05
-0.05
0.00
0.13
0.36
0.66
1.01
1.37
1.72
2.06
2.40
2.79
3.24
3.80
4.42
5.06
5.66
6.20
6.68
7.15
7.68
8.31
9.14
10.09
11.04
11.88
12.56
13.14
13.76
14.65
15.96
17.91
20.32
22.90
25.38
27.58
29.57
31.68
34.32
37.81
42.54
48.15
54.10
59.83
64.97
69.58
74.14
79.34
85.71
93.76
103.00
112.62
121.73
129.77
136.75
143.30
150.75
157.77
166.64
177.95
191.79
206.97
220.57
228.25
225.36
208.53
176.87
132.76
80.05
23.07
-34.94
-92.44
-149.16
-205.23
-260.37
-313.74
-363.87
-409.83
-450.91
-486.50
-515.74
-537.23
-549.22
-549.96
-538.37
-514.21
-478.67
-433.88
-382.45
-327.02
-269.84
-212.63
-156.66
-102.95
-52.37
-5.90
35.58
71.43
101.35
125.50
144.38
158.69
169.15
176.37
180.75
182.57
182.07
179.51
175.23
169.65
163.18
156.15
148.81
141.30
133.69
126.02
118.33
110.69
103.16
95.80
88.68
81.83
75.25
68.95
62.95
57.25
51.86
46.78
42.03
37.59
33.45
29.61
26.07
22.81
19.83
17.11
14.67
12.48
10.54
8.83
7.34
6.07
4.98
4.07
3.30
2.64
2.07
1.58
1.15
0.79
0.51
0.31
0.17
0.08
0.00
-0.08
-0.18
-0.29
-0.40
-0.47
-0.49
-0.49
-0.47
-0.49
-0.56
-0.70
-0.88
-1.04
-1.13
-1.10
-1.00
-0.88
-0.87
-1.05
-1.44
-1.97
-2.48
-2.83
-2.91
-2.77
-2.59
-2.60
-2.97
-3.76
-4.81
-5.83
-6.52
-6.67
-6.38
-5.93
-5.76
-6.20
-7.34
-8.95
-10.54
-11.65
-11.99
-11.63
-10.92
-10.39
-10.48
-11.51
-13.58
-16.50
-19.67
-22.01
-22.20
-19.06
-12.17
-2.17
9.24
19.89
28.03
32.92
34.94
35.13
34.55
33.66
32.34
30.36
27.80
25.36
24.09
24.72
27.16
30.28
32.38
31.77
27.72
20.38
10.86
0.76
-8.34
-15.13
-18.88
-19.48
-17.58
-14.27
-10.81
-7.96
-5.67
-3.17
0.53
5.93
12.55
18.93
23.11
23.30
18.49
8.87
-4.16
-18.26
-30.86
-39.98
-44.96
-46.61
-46.71
-46.82
-47.48
-47.82
-46.28
-41.66
-34.11
-25.21
-17.12
-11.35
-7.95
-5.56
-2.24
3.47
11.85
21.85
31.64
39.34
43.71
44.50
42.36
38.58
34.61
31.65
30.29
30.35
31.06
31.40
30.64
28.58
25.63
22.71
20.83
20.77
22.91
27.21
32.80
38.95
44.90
50.06
53.99
56.22
55.90
51.70
41.96
25.33
1.55
-28.24
-61.44
-94.54
-123.83
-146.18
-159.57
-163.40
-158.50
-146.75
-130.57
-112.02
-92.32
-71.74
-50.11
-27.58
-5.10
15.68
32.88
45.08
51.64
52.73
49.29
42.96
36.07
31.35
31.26
37.02
47.83
60.90
72.45
79.23
79.75
74.78
66.72
58.49
52.48
49.88
50.66
53.91
58.23
62.04
63.77
62.03
55.92
45.32
31.12
15.24
0.24
-11.32
-17.69
-18.50
-14.88
-9.02
-3.37
0.20
0.96
-0.74
-3.83
-7.15
-9.94
-11.99
-13.63
-15.46
-18.12
-22.09
-27.55
-34.42
-42.35
-50.72
-58.69
-65.37
-69.95
-71.92
-71.20
-68.13
-63.35
-57.63
-51.64
-45.84
-40.38
-35.12
-29.84
-24.34
-18.68
-13.10
-8.01
-3.60
0.25
4.03
8.31
13.50
19.64
26.43
33.53
40.78
48.26
56.13
64.36
72.62
80.30
86.77
91.67
94.95
96.84
97.62
97.42
96.31
94.37
91.88
89.26
86.97
85.33
84.43
84.11
84.09
84.03
83.57
82.30
79.84
75.88
70.43
63.85
56.83
50.13
44.21
39.12
34.48
29.83
24.87
19.62
14.37
9.47
5.12
1.35
-1.97
-4.97
-7.71
-10.14
-12.23
-14.00
-15.49
-16.74
-17.65
-18.03
-17.71
-16.65
-15.03
-13.23
-11.62
-10.46
-9.82
-9.59
-9.73
-10.27
-11.35
-13.09
-15.51
-18.44
-21.61
-24.79
-27.85
-30.82
-33.69
-36.39
-38.73
-40.52
-41.63
-42.09
-42.05
-41.67
-41.12
-40.55
-40.10
-39.97
-40.39
-41.47
-43.14
-45.13
-46.99
-48.26
-48.57
-47.73
-45.73
-42.66
-38.69
-34.09
-29.22
-24.53
-20.46
-17.40
-15.56
-14.98
-15.56
-17.11
-19.38
-22.07
-24.81
-27.19
-28.80
-29.45
-29.22
-28.47
-27.72
-27.46
-27.94
-29.15
-30.88
-32.88
-34.98
-37.06
-39.05
-40.80
-42.06
-42.56
-42.08
-40.46
-37.64
-33.62
-28.46
-22.35
-15.67
-9.02
-3.02
1.79
5.22
7.38
8.59
9.21
9.45
9.39
9.02
8.41
7.68
6.98
6.33
5.62
4.62
3.11
1.02
-1.61
-4.67
-8.12
-12.01
-16.40
-21.26
-26.37
-31.32
-35.55
-38.55
-39.89
-39.29
-36.69
-32.25
-26.37
-19.67
-12.82
-6.38
-0.66
4.24
8.42
11.96
14.89
17.18
18.80
19.74
20.04
19.78
19.07
18.14
17.16
16.32
15.59
14.78
13.51
11.36
8.07
3.56
-1.97
-8.21
-14.77
-21.26
-27.35
-32.73
-37.15
-40.47
-42.70
-43.94
-44.36
-44.14
-43.41
-42.26
-40.72
-38.75
-36.35
-33.60
-30.68
-27.90
-25.57
-23.85
-22.69
-21.84
-21.01
-20.03
-18.95
-18.02
-17.50
-17.47
-17.78
-18.12
-18.21
-17.94
-17.44
-16.99
-16.89
-17.41
-18.69
-20.65
-23.04
-25.37
-27.05
-27.51
-26.42
-23.77
-19.88
-15.24
-10.32
-5.54
-1.16
2.65
5.83
8.44
10.66
12.67
14.56
16.21
17.28
17.36
16.13
13.46
9.45
4.34
-1.62
-8.09
-14.66
-20.90
-26.37
-30.84
-34.34
-37.14
-39.59
-41.99
-44.40
-46.62
-48.19
-48.52
-47.11
-43.72
-38.48
-31.89
-24.64
-17.38
-10.53
-4.22
1.66
7.32
12.93
18.49
23.91
29.05
33.76
37.82
40.95
42.85
43.26
42.15
39.76
36.57
33.19
30.18
27.95
26.73
26.52
27.14
28.19
29.14
29.35
28.30
25.78
22.03
17.61
13.27
9.66
7.16
5.89
5.77
6.66
8.39
10.76
13.52
16.39
19.14
21.58
23.66
25.38
26.75
27.73
28.21
28.02
27.07
25.31
22.85
19.84
16.47
12.81
8.87
4.53
-0.32
-5.78
-11.87
-18.55
-25.69
-33.10
-40.51
-47.49
-53.54
-58.11
-60.72
-61.09
-59.17
-55.18
-49.53
-42.68
-35.14
-27.34
-19.64
-12.32
-5.62
0.25
5.11
8.79
11.19
12.32
12.30
11.42
10.04
8.48
6.94
5.52
4.31
3.50
3.41
4.35
6.40
9.16
11.90
13.74
14.12
13.01
10.90
8.50
6.39
4.83
3.79
3.24
3.28
4.20
6.23
9.41
13.42
17.70
21.76
25.37
28.63
31.80
35.09
38.50
41.69
44.21
45.56
45.43
43.74
40.71
36.87
32.96
29.76
27.90
27.61
28.62
30.26
31.68
32.14
31.24
28.94
25.53
21.51
17.50
14.11
11.86
10.99
11.45
12.95
15.08
17.50
20.01
22.43
24.65
26.56
28.26
30.08
32.46
35.61
39.20
42.33
43.96
43.43
40.87
37.15
33.28
29.80
26.43
22.29
16.52
8.83
-0.28
-9.84
-18.98
-27.28
-34.84
-41.97
-48.70
-54.63
-59.04
-61.28
-61.09
-58.83
-55.22
-50.97
-46.44
-41.64
-36.49
-31.18
-26.32
-22.74
-21.06
-21.27
-22.70
-24.29
-25.11
-24.70
-23.21
-21.07
-18.77
-16.61
-14.67
-12.97
-11.55
-10.47
-9.85
-9.83
-10.57
-12.20
-14.72
-17.82
-20.81
-22.77
-22.63
-19.57
-13.20
-3.76
7.92
20.51
32.48
42.42
49.47
53.53
55.30
56.03
57.05
59.29
63.10
68.20
73.89
79.29
83.52
85.80
85.64
82.81
77.33
69.38
59.29
47.39
34.12
20.07
5.95
-7.32
-18.82
-27.76
-33.73
-36.67
-36.84
-34.65
-30.66
-25.49
-19.88
-14.65
-10.51
-7.88
-6.83
-7.03
-8.02
-9.33
-10.77
-12.35
-14.15
-16.09
-17.95
-19.37
-20.02
-19.72
-18.48
-16.46
-13.91
-11.17
-8.57
-6.43
-4.97
-4.27
-4.27
-4.81
-5.68
-6.56
-7.00
-6.43
-4.35
-0.44
5.23
12.18
19.63
26.76
32.96
37.87
41.35
43.42
43.99
43.02
40.47
36.40
31.00
24.50
17.05
8.73
-0.32
-9.77
-19.00
-27.20
-33.59
-37.80
-40.02
-41.06
-41.97
-43.63
-46.34
-49.64
-52.54
-53.95
-53.07
-49.64
-43.90
-36.34
-27.56
-18.16
-8.70
0.17
7.79
13.49
16.86
17.87
16.92
14.78
12.31
10.23
8.94
8.46
8.54
8.81
8.94
8.72
7.99
6.65
4.49
1.25
-3.26
-9.00
-15.56
-22.17
-27.87
-31.73
-33.18
-32.18
-29.20
-25.03
-20.48
-16.09
-12.11
-8.59
-5.60
-3.29
-1.86
-1.35
-1.65
-2.44
-3.43
-4.47
-5.57
-6.89
-8.51
-10.45
-12.65
-15.12
-17.94
-21.38
-25.69
-31.01
-37.30
-44.23
-51.23
-57.53
-62.31
-64.88
-64.84
-62.20
-57.27
-50.66
-42.98
-34.86
-26.83
-19.35
-12.83
-7.54
-3.63
-1.00
0.57
1.40
1.72
1.72
1.47
0.92
-0.06
-1.70
-4.29
-8.05
-12.87
-18.36
-23.90
-28.88
-33.01
-36.27
-38.68
-39.92
-39.23
-35.57
-28.27
-17.54
-4.52
9.06
21.61
32.18
40.44
46.10
48.43
46.34
38.96
26.57
10.93
-5.19
-19.25
-30.12
-38.55
-46.50
-55.86
-67.22
-79.42
-89.98
-96.01
-95.13
-85.79
-67.38
-40.27
-6.18
31.45
67.59
96.42
112.96
114.64
102.15
79.25
51.36
23.83
0.58
-16.46
-27.06
-31.99
-32.29
-28.91
-22.70
-14.46
-5.11
4.57
14.03
23.25
32.81
43.68
56.80
72.51
90.34
108.89
126.28
140.60
150.43
155.13
155.05
151.37
145.74
139.78
134.53
130.17
126.13
121.57
115.86
108.87
100.85
92.05
82.45
71.82
60.13
47.82
35.81
24.97
15.69
7.66
0.25
-7.00
-14.07
-20.48
-25.75
-29.63
-32.19
-33.70
-34.38
-34.60
-34.89
-36.05
-38.82
-43.46
-49.45
-55.56
-60.34
-62.80
-62.72
-60.60
-57.25
-53.40
-49.47
-45.60
-41.80
-38.05
-34.25
-30.43
-26.71
-23.32
-20.53
-18.51
-17.25
-16.67
-16.76
-17.64
-19.39
-21.87
-24.69
-27.47
-30.20
-33.51
-38.36
-45.49
-54.68
-64.54
-72.95
-78.03
-78.93
-76.12
-70.96
-64.79
-58.39
-51.83
-44.83
-37.25
-29.34
-21.66
-14.64
-8.37
-2.50
3.52
10.05
17.00
23.83
29.76
34.20
37.01
38.66
39.99
41.81
44.35
47.12
49.05
49.09
46.75
42.44
37.25
32.52
29.15
27.27
26.18
24.64
21.23
14.77
4.50
-9.77
-27.73
-48.51
-70.68
-92.13
-110.05
-121.05
-121.88
-110.46
-87.01
-54.48
-17.97
16.93
45.96
67.41
82.08
92.14
99.56
105.19
108.86
110.31
110.09
109.84
111.46
116.00
123.08
131.11
138.15
142.76
144.18
141.99
135.49
123.38
103.90
75.55
38.27
-5.90
-52.75
-96.82
-132.92
-157.69
-170.63
-174.08
-172.04
-168.33
-165.03
-161.94
-157.32
-149.42
-137.92
-124.19
-110.47
-98.52
-88.63
-79.55
-69.30
-56.51
-41.22
-24.97
-9.95
2.15
11.02
17.60
23.33
29.16
34.95
39.66
42.28
42.78
42.48
43.63
48.28
57.17
69.25
82.12
93.09
100.39
103.72
103.99
102.51
100.08
96.62
91.45
83.99
74.37
63.69
53.56
45.42
39.75
35.83
32.10
27.05
19.98
11.41
2.79
-4.20
-8.54
-10.29
-10.35
-9.92
-9.68
-9.41
-8.18
-5.05
0.20
6.62
12.48
16.08
16.68
15.00
12.82
12.00
13.46
16.65
19.86
21.30
20.02
16.50
12.28
9.04
7.75
8.18
9.27
9.79
9.02
6.99
4.22
1.26
-1.63
-4.49
-7.48
-10.48
-13.11
-14.94
-15.83
-16.26
-17.22
-19.88
-24.92
-32.13
-40.36
-47.83
-52.76
-54.02
-51.43
-45.71
-38.09
-29.93
-22.33
-16.06
-11.59
-9.12
-8.61
-9.69
-11.81
-14.37
-17.05
-19.92
-23.35
-27.51
-32.00
-35.71
-37.24
-35.66
-31.12
-25.05
-19.47
-16.07
-15.40
-16.53
-17.53
-16.35
-11.68
-3.51
6.97
17.89
27.52
34.96
40.54
45.50
51.23
58.38
66.27
73.25
77.57
78.32
75.87
71.45
66.18
60.11
52.25
41.27
26.37
8.22
-11.24
-29.72
-45.50
-58.05
-67.75
-75.39
-81.53
-86.25
-89.17
-89.73
-87.55
-82.60
-75.12
-65.32
-53.10
-38.06
-20.05
0.41
21.70
41.59
57.99
69.84
77.62
83.06
88.25
94.57
102.10
109.71
115.91
119.84
121.46
121.43
120.43
118.67
115.71
110.83
103.58
94.30
84.13
74.59
66.78
60.89
56.11
51.30
45.74
39.56
33.59
28.78
25.48
23.27
21.23
18.51
14.78
10.21
5.26
0.36
-4.21
-8.16
-11.17
-12.86
-13.09
-12.21
-11.11
-10.97
-12.72
-16.73
-22.66
-29.66
-36.82
-43.44
-49.16
-53.84
-57.35
-59.45
-59.93
-58.78
-56.41
-53.51
-50.89
-49.15
-48.54
-48.97
-50.20
-51.95
-54.00
-56.15
-58.14
-59.58
-60.06
-59.27
-57.07
-53.54
-48.93
-43.63
-38.12
-32.92
-28.54
-25.33
-23.37
-22.46
-22.17
-22.01
-21.52
-20.44
-18.71
-16.40
-13.68
-10.84
-8.20
-6.11
-4.84
-4.51
-5.03
-6.13
-7.46
-8.59
-9.22
-9.08
-8.11
-6.34
-3.96
-1.19
1.73
4.66
7.47
10.06
12.26
13.85
14.65
14.64
14.02
13.19
12.68
12.93
14.17
16.41
19.41
22.81
26.21
29.25
31.66
33.33
34.29
34.60
34.37
33.71
32.69
31.39
29.90
28.33
26.72
25.08
23.32
21.40
19.29
17.07
14.86
12.70
10.52
8.04
5.05
1.45
-2.52
-6.31
-9.24
-10.71
-10.47
-8.68
-5.86
-2.67
0.28
2.64
4.38
5.63
6.58
7.32
7.76
7.77
7.28
6.41
5.40
4.55
3.99
3.67
3.31
2.66
1.60
0.24
-1.17
-2.39
-3.40
-4.43
-5.91
-8.17
-11.29
-14.91
-18.34
-20.75
-21.52
-20.42
-17.71
-13.96
-9.84
-5.90
-2.50
0.12
1.81
2.45
1.98
0.47
-1.86
-4.69
-7.64
-10.38
-12.72
-14.64
-16.28
-17.87
-19.64
-21.64
-23.79
-25.88
-27.75
-29.40
-31.00
-32.80
-34.97
-37.39
-39.68
-41.29
-41.69
-40.48
-37.60
-33.28
-28.02
-22.41
-16.99
-12.18
-8.15
-4.90
-2.33
-0.33
1.21
2.36
3.16
3.72
4.06
4.15
3.80
2.79
0.93
-1.70
-4.69
-7.37
-9.08
-9.46
-8.67
-7.28
-6.05
-5.55
-5.90
-6.79
-7.66
-7.92
-7.19
-5.27
-2.25
1.61
5.93
10.38
14.67
18.66
22.35
25.79
29.00
31.87
34.15
35.54
35.84
35.00
33.21
30.88
28.43
26.23
24.47
23.10
21.94
20.84
19.82
19.05
18.73
18.88
19.24
19.41
19.06
18.18
17.21
16.90
18.03
21.03
25.77
31.68
38.02
44.14
49.66
54.40
58.19
60.79
61.86
61.08
58.31
53.63
47.41
40.09
32.08
23.64
14.87
5.73
-4.10
-15.22
-28.45
-44.52
-63.56
-84.73
-106.10
-125.05
-139.09
-146.68
-147.72
-143.41
-135.62
-126.12
-116.04
-105.84
-95.57
-85.30
-75.37
-66.36
-58.76
-52.79
-48.16
-44.28
-40.57
-36.73
-32.93
-29.68
-27.48
-26.38
-25.82
-24.67
-21.69
-16.02
-7.65
2.58
13.36
23.38
31.82
38.45
43.50
47.31
50.17
52.28
53.83
55.11
56.29
57.04
56.26
52.07
42.41
25.93
3.01
-23.96
-51.17
-74.64
-91.53
-100.86
-103.27
-100.25
-93.42
-84.04
-73.22
-62.17
-52.43
-45.58
-42.89
-44.71
-50.18
-57.34
-63.63
-66.67
-64.96
-58.23
-47.36
-33.91
-19.51
-5.20
8.62
22.11
35.56
48.98
62.23
74.96
86.83
97.44
106.14
111.97
113.86
111.11
103.85
93.13
80.50
67.50
55.22
44.30
35.13
27.95
22.58
18.08
12.70
4.45
-7.76
-23.23
-39.32
-52.48
-60.00
-61.37
-58.64
-55.10
-53.61
-55.07
-58.35
-61.30
-62.24
-60.95
-58.64
-57.07
-57.39
-59.49
-62.29
-64.38
-64.91
-63.67
-60.61
-55.08
-45.52
-29.93
-6.97
22.80
56.86
91.22
121.91
146.34
163.74
174.75
180.62
182.66
181.94
179.22
174.94
169.13
161.18
149.83
133.58
111.39
83.28
50.59
15.75
-18.43
-49.39
-75.29
-95.26
-109.20
-117.84
-122.54
-125.07
-127.22
-130.32
-134.70
-139.53
-143.20
-143.71
-139.81
-131.52
-120.09
-107.38
-94.91
-83.34
-72.34
-61.02
-48.46
-34.06
-17.58
0.94
21.35
43.31
66.18
88.99
110.54
129.65
145.42
157.32
165.29
169.53
170.40
168.04
162.26
152.46
137.88
118.12
93.68
66.09
37.63
10.74
-12.81
-32.18
-47.38
-58.88
-67.21
-72.81
-76.11
-77.78
-78.61
-79.38
-80.48
-81.84
-83.01
-83.40
-82.51
-80.14
-76.22
-70.77
-63.80
-55.44
-45.99
-35.87
-25.60
-15.54
-5.87
3.21
11.42
18.33
23.53
27.03
29.38
31.60
34.70
39.16
44.58
49.79
53.41
54.46
52.82
49.16
44.57
39.95
35.63
31.24
26.03
19.36
11.07
1.67
-7.65
-15.42
-20.18
-20.72
-16.44
-7.40
5.65
21.30
37.82
53.45
66.85
77.37
84.94
89.76
91.75
90.23
83.93
71.49
52.27
26.93
-2.34
-32.12
-58.54
-78.24
-89.11
-90.74
-84.35
-72.44
-58.12
-44.38
-33.51
-26.81
-24.39
-25.67
-29.55
-34.85
-40.64
-46.20
-51.04
-54.77
-56.97
-57.23
-55.32
-51.31
-45.53
-38.49
-30.72
-22.85
-15.59
-9.71
-5.71
-3.62
-2.84
-2.21
-0.28
4.17
11.74
22.20
34.56
47.51
59.98
71.48
82.22
92.91
104.33
117.04
131.26
146.70
162.56
177.46
189.51
196.57
196.89
189.75
176.00
157.80
137.88
118.32
99.78
81.54
62.21
40.75
17.09
-7.92
-33.08
-57.38
-80.21
-101.23
-120.03
-135.95
-148.25
-156.38
-160.32
-160.71
-158.79
-155.97
-153.54
-152.36
-152.57
-153.72
-154.80
-154.48
-151.59
-145.45
-136.09
-124.18
-110.71
-96.70
-82.80
-69.23
-55.86
-42.53
-29.29
-16.56
-4.99
4.76
12.35
17.93
22.00
25.23
28.03
30.54
32.70
34.53
36.33
38.56
41.45
44.75
47.85
50.10
51.23
51.45
51.26
51.07
50.89
50.32
48.70
45.49
40.49
33.84
26.04
17.77
9.80
2.77
-2.93
-7.25
-10.45
-12.93
-15.09
-17.20
-19.43
-21.83
-24.34
-26.57
-27.91
-27.66
-25.17
-20.22
-13.12
-4.69
3.97
11.82
18.25
23.11
26.62
29.19
31.08
32.41
33.17
33.35
33.06
32.52
32.00
31.70
31.66
31.85
32.22
32.75
33.50
34.51
35.81
37.23
38.54
39.40
39.43
38.50
36.80
34.85
33.29
32.64
32.99
34.01
35.13
35.76
35.58
34.47
32.40
29.28
24.97
19.42
12.85
5.81
-1.01
-7.03
-12.05
-16.21
-19.91
-23.59
-27.57
-32.10
-37.34
-43.30
-49.79
-56.26
-61.79
-65.33
-65.94
-63.15
-57.13
-48.53
-38.28
-27.34
-16.64
-7.01
0.76
6.02
8.52
8.50
6.79
4.55
2.89
2.49
3.39
5.06
6.63
7.21
6.22
3.45
-1.10
-7.40
-15.58
-25.85
-38.27
-52.45
-67.44
-82.02
-95.06
-105.84
-114.04
-119.26
-120.84
-117.73
-109.07
-94.78
-75.90
-54.40
-32.49
-11.85
6.74
23.23
37.65
49.74
59.02
65.17
68.47
70.03
71.36
73.76
77.83
83.34
89.44
95.10
99.49
102.04
102.47
100.55
96.07
88.93
79.25
67.50
54.42
40.80
27.28
14.12
1.25
-11.63
-24.66
-37.71
-50.29
-61.76
-71.76
-80.24
-87.47
-93.72
-98.93
-102.69
-104.59
-104.65
-103.55
-102.42
-102.26
-103.29
-104.81
-105.61
-104.63
-101.68
-97.50
-93.16
-89.54
-86.55
-83.27
-78.48
-71.30
-61.80
-50.99
-40.44
-31.66
-25.60
-22.39
-21.45
-21.81
-22.41
-22.50
-21.72
-20.22
-18.45
-16.94
-16.06
-15.91
-16.33
-16.96
-17.41
-17.47
-17.09
-16.37
-15.23
-13.21
-9.34
-2.40
8.69
24.16
43.28
64.57
86.50
108.08
129.12
149.97
170.90
191.77
211.93
230.53
246.81
260.21
270.24
276.25
277.61
273.85
265.04
251.73
234.78
214.79
191.93
166.03
137.00
105.34
72.34
39.86
9.91
-15.93
-36.94
-53.28
-65.77
-75.41
-83.02
-89.08
-93.84
-97.68
-101.21
-105.17
-109.95
-115.10
-119.25
-120.62
-117.85
-110.78
-100.71
-89.95
-80.78
-74.62
-71.48
-70.23
-69.22
-67.00
-62.84
-56.71
-49.09
-40.67
-32.06
-23.69
-15.87
-8.93
-3.22
0.83
2.93
3.00
1.35
-1.52
-5.05
-8.92
-13.15
-18.05
-24.02
-31.25
-39.45
-47.83
-55.24
-60.55
-63.03
-62.61
-59.86
-55.66
-50.73
-45.31
-39.12
-31.66
-22.74
-12.75
-2.73
5.97
12.20
15.39
15.75
14.03
11.32
8.60
6.60
5.69
6.00
7.50
10.10
13.70
18.02
22.62
26.91
30.24
32.08
32.26
30.90
28.47
25.57
22.69
20.14
17.99
16.09
14.25
12.37
10.49
8.76
7.42
6.63
6.35
6.40
6.46
6.14
5.13
3.27
0.63
-2.53
-5.82
-8.74
-10.78
-11.43
-10.24
-6.89
-1.35
6.02
14.42
22.78
29.96
35.07
37.69
37.93
36.27
33.30
29.59
25.54
21.43
17.39
13.47
9.68
5.97
2.32
-1.26
-4.70
-7.87
-10.65
-12.98
-14.94
-16.71
-18.54
-20.57
-22.80
-25.01
-26.82
-27.85
-27.88
-26.96
-25.30
-23.22
-20.96
-18.63
-16.33
-14.20
-12.46
-11.33
-10.90
-11.01
-11.37
-11.62
-11.55
-11.13
-10.43
-9.51
-8.43
-7.28
-6.19
-5.38
-5.04
-5.13
-5.43
-5.58
-5.30
-4.43
-3.12
-1.56
0.07
1.70
3.37
5.10
6.85
8.52
9.95
11.00
11.51
11.37
10.51
8.94
6.80
4.30
1.63
-1.09
-3.85
-6.57
-9.05
-10.96
-11.90
-11.63
-10.14
-7.62
-4.27
-0.18
4.58
9.81
14.96
19.19
21.62
21.72
19.51
15.54
10.67
5.66
1.07
-2.75
-5.58
-7.28
-7.91
-7.74
-7.16
-6.53
-5.87
-4.98
-3.63
-1.88
-0.23
0.62
0.16
-1.60
-4.11
-6.60
-8.42
-9.24
-8.99
-7.60
-4.89
-0.67
5.00
11.63
18.37
24.34
29.03
32.49
35.23
37.96
41.31
45.79
51.75
59.43
68.75
79.23
89.88
99.43
106.80
111.47
113.69
114.26
114.17
114.17
114.45
114.63
113.89
111.24
105.67
96.41
83.07
65.82
45.44
23.31
1.11
-19.40
-36.75
-50.00
-58.86
-63.80
-65.81
-66.26
-66.48
-67.43
-69.60
-72.90
-76.95
-81.23
-85.31
-88.81
-91.33
-92.30
-91.15
-87.44
-81.03
-72.01
-60.58
-46.92
-31.38
-14.78
1.28
14.57
22.73
24.28
19.23
9.25
-2.93
-14.49
-23.54
-29.45
-32.74
-34.49
-35.58
-36.50
-37.29
-37.79
-38.02
-38.17
-38.63
-39.71
-41.38
-43.18
-44.28
-43.74
-40.83
-35.29
-27.38
-17.69
-6.92
4.39
15.88
27.19
37.74
46.59
52.60
54.85
53.13
48.11
41.12
33.65
26.65
20.31
14.14
7.56
0.29
-7.29
-14.45
-20.46
-25.00
-28.23
-30.55
-32.29
-33.59
-34.49
-35.21
-36.17
-37.87
-40.54
-43.72
-46.29
-46.87
-44.45
-38.91
-31.11
-22.53
-14.60
-8.20
-3.50
-0.20
1.99
2.93
2.07
-1.24
-7.27
-15.49
-24.53
-32.55
-37.84
-39.36
-37.03
-31.68
-24.64
-17.30
-10.59
-4.74
0.85
7.51
16.87
30.40
48.76
71.47
96.79
122.12
144.63
161.97
172.78
176.85
174.97
168.48
158.81
147.16
134.36
120.98
107.35
93.63
79.80
65.56
50.34
33.46
14.47
-6.55
-28.79
-50.78
-70.83
-87.50
-100.03
-108.43
-113.36
-115.78
-116.53
-116.08
-114.43
-111.19
-105.80
-97.84
-87.23
-74.33
-59.87
-44.71
-29.67
-15.32
-1.96
10.36
21.64
31.81
40.68
47.99
53.48
56.96
58.40
57.82
55.35
51.32
46.20
40.60
35.07
29.88
24.90
19.64
13.52
6.22
-2.21
-11.31
-20.46
-29.09
-36.87
-43.62
-49.25
-53.67
-56.77
-58.57
-59.20
-58.89
-57.94
-56.53
-54.72
-52.41
-49.40
-45.44
-40.38
-34.37
-27.90
-21.85
-17.18
-14.59
-14.16
-15.26
-16.82
-17.75
-17.42
-15.89
-13.75
-11.86
-10.88
-11.17
-12.60
-14.78
-17.18
-19.24
-20.54
-20.90
-20.38
-19.33
-18.16
-17.14
-16.22
-15.01
-12.99
-9.80
-5.50
-0.65
3.84
7.06
8.49
8.19
6.90
5.60
5.09
5.51
6.26
6.23
4.29
-0.17
-7.06
-15.55
-24.41
-32.36
-38.32
-41.57
-41.84
-39.26
-34.31
-27.69
-20.03
-11.67
-2.65
7.08
17.34
27.46
36.42
43.19
47.26
48.83
48.80
48.21
47.79
47.79
48.15
48.90
50.36
52.61
54.91
55.32
51.11
39.97
21.46
-2.69
-29.10
-54.37
-76.29
-93.95
-106.75
-113.55
-112.59
-102.70
-84.60
-61.40
-37.64
-17.53
-3.35
4.80
8.21
8.37
6.46
3.48
0.90
0.60
4.11
11.71
21.84
31.73
38.74
41.48
40.27
36.66
32.38
28.56
25.71
23.58
21.90
20.48
19.25
18.01
16.39
13.86
10.09
5.18
-0.25
-5.27
-9.00
-11.00
-11.42
-10.89
-10.22
-10.09
-10.78
-12.19
-14.02
-16.06
-18.54
-22.22
-28.27
-37.89
-51.81
-69.91
-90.97
-112.67
-131.86
-144.95
-148.69
-141.01
-121.79
-93.20
-59.40
-25.43
4.11
26.30
40.42
47.62
50.14
50.22
49.57
49.30
50.18
52.98
58.39
66.61
76.94
87.68
96.63
101.86
102.38
98.32
90.47
79.65
66.28
50.48
32.63
13.72
-4.53
-20.19
-31.70
-38.21
-39.59
-36.04
-27.86
-15.43
0.55
18.98
38.49
57.84
76.33
93.98
111.23
128.56
146.04
163.10
178.78
191.98
201.82
207.73
209.52
207.22
200.97
191.11
178.05
162.39
144.80
125.91
106.20
86.05
65.78
45.81
26.63
8.73
-7.47
-21.78
-34.13
-44.64
-53.46
-60.84
-67.16
-72.83
-78.13
-83.05
-87.11
-89.52
-89.46
-86.42
-80.46
-72.06
-61.87
-50.38
-37.80
-24.19
-9.72
5.23
20.10
34.31
47.43
59.28
69.82
79.04
86.74
92.48
95.66
95.73
92.48
86.17
77.60
67.81
57.87
48.59
40.31
32.92
25.92
18.53
9.96
-0.48
-13.01
-27.24
-42.11
-56.19
-68.07
-76.83
-82.29
-84.86
-85.33
-84.43
-82.53
-79.64
-75.47
-69.79
-62.68
-54.56
-46.05
-37.59
-29.22
-20.74
-11.99
-3.18
5.07
11.97
16.75
18.83
17.71
12.86
3.83
-9.43
-26.32
-45.52
-65.38
-84.43
-101.82
-117.31
-131.02
-143.01
-153.08
-160.85
-165.84
-167.78
-166.49
-161.77
-153.36
-141.00
-124.41
-103.64
-79.46
-53.37
-27.51
-4.14
15.43
31.51
45.92
60.70
76.52
92.06
104.86
113.11
117.19
119.64
123.43
129.76
136.89
140.95
138.27
127.71
111.35
93.28
77.24
64.75
54.88
45.53
35.17
23.91
13.29
5.10
0.60
-0.15
1.74
4.70
7.36
8.97
9.43
9.03
8.02
6.32
3.57
-0.61
-6.21
-12.66
-19.06
-24.66
-29.34
-33.77
-39.03
-45.97
-54.70
-64.34
-73.44
-80.60
-84.99
-86.52
-85.70
-83.28
-79.92
-76.17
-72.40
-68.88
-65.70
-62.71
-59.48
-55.40
-49.82
-42.22
-32.36
-20.34
-6.62
7.99
22.48
35.72
46.78
55.07
60.47
63.14
63.43
61.71
58.28
53.51
47.80
41.69
35.65
30.04
24.86
19.82
14.46
8.36
1.45
-5.95
-13.22
-19.58
-24.49
-27.84
-30.00
-31.70
-33.70
-36.52
-40.15
-44.04
-47.28
-48.91
-48.28
-45.25
-40.25
-34.06
-27.53
-21.25
-15.54
-10.33
-5.50
-0.94
3.32
7.07
10.05
12.07
13.04
13.00
12.13
10.65
8.80
6.80
4.79
2.81
0.89
-0.98
-2.76
-4.32
-5.40
-5.67
-4.78
-2.48
1.26
6.20
11.88
17.70
23.18
28.02
32.19
35.90
39.47
43.20
47.27
51.73
56.48
61.33
66.06
70.41
74.08
76.74
78.06
77.81
75.89
72.29
67.05
60.16
51.55
41.26
29.47
16.58
3.24
-9.81
-21.86
-32.30
-40.78
-47.22
-51.81
-54.90
-56.76
-57.49
-56.97
-55.05
-51.81
-47.77
-43.80
-40.71
-38.88
-38.04
-37.40
-36.06
-33.45
-29.52
-24.66
-19.37
-14.01
-8.58
-2.88
3.30
9.89
16.40
22.05
26.08
28.07
28.16
26.95
25.20
23.46
21.89
20.32
18.49
16.26
13.75
11.15
8.57
5.92
2.93
-0.71
-5.16
-10.39
-16.20
-22.31
-28.36
-34.04
-39.05
-43.11
-46.07
-47.83
-48.38
-47.73
-45.85
-42.71
-38.35
-32.98
-27.00
-20.98
-15.51
-11.10
-8.06
-6.41
-5.95
-6.22
-6.70
-6.84
-6.26
-4.82
-2.65
-0.08
2.38
4.23
5.12
4.86
3.44
0.98
-2.34
-6.34
-10.75
-15.31
-19.66
-23.41
-26.22
-27.87
-28.27
-27.47
-25.66
-23.07
-19.90
-16.32
-12.39
-8.09
-3.40
1.66
7.02
12.50
17.84
22.80
27.27
31.19
34.56
37.32
39.32
40.40
40.41
39.19
36.59
32.49
26.85
19.79
11.56
2.56
-6.58
-15.26
-23.02
-29.64
-35.08
-39.35
-42.54
-44.77
-46.16
-46.45
-45.33
-42.84
-39.46
-35.88
-32.75
-30.54
-29.50
-29.68
-30.20
-30.28
-29.75
-29.21
-29.37
-30.41
-31.95
-33.43
-34.53
-33.98
-30.71
-24.23
-14.71
-2.41
12.28
28.40
43.87
56.19
65.23
72.70
81.22
93.09
109.76
131.29
156.41
182.81
198.39
194.63
171.96
139.65
107.38
79.08
53.66
28.71
2.75
-23.90
-48.27
-67.72
-80.90
-87.61
-87.40
-80.11
-64.44
-40.80
-12.21
17.33
42.66
59.64
66.32
63.73
54.63
42.35
28.93
14.81
0.02
-16.49
-34.64
-53.01
-69.02
-80.39
-85.23
-83.01
-74.72
-58.24
-37.18
-19.48
-12.51
-17.98
-32.76
-50.90
-66.75
-76.51
-78.88
-75.42
-68.27
-61.40
-54.10
-46.35
-38.77
-32.34
-27.41
-23.51
-20.12
-16.05
-9.95
-0.92
10.05
22.04
32.73
40.31
44.21
44.84
43.77
43.05
44.60
48.83
55.14
62.36
69.61
76.48
82.82
88.74
94.46
100.16
105.53
110.15
113.54
115.41
115.56
113.73
109.79
103.76
95.89
86.34
75.16
62.34
48.01
32.54
16.48
0.33
-15.57
-31.13
-46.45
-61.44
-75.73
-88.56
-99.06
-106.63
-111.12
-112.82
-112.20
-109.64
-105.29
-99.19
-91.44
-82.29
-72.14
-61.43
-50.52
-39.76
-29.47
-19.96
-11.60
-4.74
0.34
3.63
5.37
6.00
5.92
5.42
4.69
3.73
2.35
0.23
-2.88
-6.96
-11.64
-16.47
-20.94
-24.64
-27.46
-29.66
-31.77
-34.21
-37.10
-40.24
-43.98
-48.61
-54.14
-60.14
-65.97
-70.94
-74.38
-75.64
-74.33
-71.51
-68.11
-63.96
-57.87
-48.62
-35.86
-20.21
-2.99
14.08
27.24
33.55
32.38
25.39
14.90
2.74
-9.96
-22.59
-34.86
-49.20
-67.36
-88.78
-111.11
-132.46
-152.78
-173.21
-194.78
-200.49
-178.87
-131.09
-69.57
-7.13
49.14
96.44
133.81
161.03
179.50
188.98
189.56
184.07
177.79
175.82
180.70
192.11
207.95
222.42
229.50
225.93
212.93
195.08
177.27
162.35
150.83
141.66
133.32
123.55
110.78
94.77
76.34
56.41
35.83
15.58
-3.18
-19.65
-34.36
-48.99
-65.57
-85.52
-109.09
-135.07
-160.84
-183.18
-199.36
-208.07
-209.63
-205.48
-197.43
-187.11
-175.71
-164.00
-152.58
-142.03
-132.77
-124.97
-118.30
-111.98
-104.95
-96.31
-85.63
-73.09
-59.38
-45.30
-31.53
-18.40
-5.95
5.90
17.14
27.56
36.76
44.29
49.80
53.24
54.88
55.23
54.79
53.89
52.57
50.73
48.40
45.91
43.90
43.08
43.79
45.80
48.32
50.43
51.55
51.71
51.62
52.29
54.55
58.69
64.25
70.12
74.82
76.96
75.76
71.30
64.56
56.97
49.87
44.00
39.19
34.51
28.67
20.53
9.54
-4.02
-19.17
-34.55
-49.05
-62.17
-74.18
-85.74
-97.31
-108.67
-118.82
-126.27
-129.46
-127.21
-118.87
-104.25
-83.91
-59.32
-33.16
-8.98
9.69
20.51
23.15
19.26
11.48
2.20
-7.18
-16.02
-23.54
-28.12
-27.39
-19.37
-3.59
18.40
43.50
68.53
91.41
111.66
129.87
146.74
162.28
175.72
185.98
192.15
193.95
191.59
185.68
177.11
166.87
155.89
144.64
132.99
120.25
105.74
89.40
72.07
55.29
40.57
28.75
19.71
12.70
6.94
2.04
-1.99
-5.17
-8.04
-11.83
-18.11
-27.99
-41.51
-57.51
-74.18
-89.94
-104.22
-117.57
-131.10
-145.73
-161.47
-177.42
-192.19
-204.62
-214.32
-221.75
-227.76
-233.12
-238.17
-242.88
-247.15
-251.10
-255.08
-259.45
-263.86
-266.51
-263.98
-251.81
-225.94
-184.40
-128.32
-62.01
8.31
76.51
138.40
192.02
236.91
272.68
298.22
312.23
313.98
304.03
284.81
260.36
235.31
213.57
197.16
185.81
177.60
169.24
156.51
135.63
104.86
65.12
19.87
-25.80
-66.44
-96.61
-112.38
-112.81
-99.70
-76.81
-48.82
-20.06
6.60
26.17
35.54
35.93
31.10
23.94
15.74
7.60
1.39
-0.93
0.99
5.65
11.39
13.61
9.61
0.21
-10.93
-19.31
-21.82
-18.12
-9.82
0.50
10.43
17.32
21.00
22.63
23.44
23.57
21.88
17.01
8.12
-4.74
-20.21
-35.60
-48.47
-57.52
-62.67
-64.44
-63.07
-58.26
-49.59
-36.69
-19.42
1.09
22.20
40.60
53.48
59.59
59.43
54.66
47.75
41.57
38.28
38.75
42.68
48.99
55.86
60.65
60.35
49.95
28.15
-0.08
-26.24
-44.31
-53.14
-55.39
-55.41
-57.08
-64.25
-76.21
-91.12
-107.26
-123.46
-138.81
-152.48
-163.75
-172.35
-172.44
-161.29
-138.48
-106.08
-67.97
-28.54
8.71
41.94
71.06
96.91
119.54
137.82
149.65
153.31
148.74
137.95
123.96
109.40
95.71
82.86
70.67
59.46
49.90
42.27
35.68
28.11
17.58
3.50
-12.89
-28.79
-41.29
-48.97
-52.47
-53.93
-55.76
-59.57
-65.44
-72.15
-77.52
-79.27
-75.95
-67.40
-54.84
-40.21
-25.50
-12.11
-0.76
8.30
14.95
18.95
20.14
18.68
15.17
10.59
5.94
1.89
-1.38
-4.11
-6.70
-9.50
-12.63
-16.00
-19.34
-22.36
-24.82
-26.64
-27.86
-28.63
-29.11
-29.37
-29.45
-29.34
-29.09
-28.73
-28.35
-27.92
-27.28
-26.11
-23.93
-20.33
-15.07
-8.21
-0.17
8.50
17.14
25.19
32.21
37.86
41.93
44.28
44.91
43.95
41.65
38.33
34.33
29.92
25.33
20.83
16.74
13.36
10.85
9.04
7.54
5.83
3.51
0.59
-2.62
-5.66
-8.29
-10.70
-13.47
-17.31
-22.71
-29.67
-37.69
-45.85
-53.16
-58.79
-62.35
-63.88
-63.78
-62.59
-60.77
-58.59
-56.10
-53.11
-49.22
-43.76
-36.07
-25.91
-13.85
-1.52
8.81
15.02
15.98
12.14
5.13
-2.89
-10.17
-15.70
-19.29
-21.05
-21.15
-19.76
-16.97
-12.84
-7.30
-0.13
8.78
19.15
30.03
40.04
47.92
53.29
56.94
60.46
65.47
72.66
81.35
89.89
96.34
99.47
99.18
96.37
92.26
87.71
82.79
76.97
69.59
60.47
50.13
39.60
29.91
21.72
15.10
9.70
5.14
1.29
-1.67
-3.32
-3.33
-1.66
1.33
4.95
8.36
10.85
12.00
11.79
10.49
8.45
5.97
3.21
0.25
-2.73
-5.38
-7.27
-8.08
-7.74
-6.49
-4.73
-2.83
-0.99
0.84
2.79
4.92
7.15
9.30
11.18
12.71
13.94
14.95
15.84
16.59
17.08
17.21
16.93
16.32
15.53
14.83
14.45
14.51
14.97
15.63
16.18
16.35
15.95
14.92
13.27
10.99
8.10
4.66
0.89
-2.78
-5.71
-7.28
-7.09
-5.06
-1.51
3.01
7.97
12.98
17.87
22.58
27.05
31.07
34.29
36.28
36.66
35.17
31.75
26.49
19.64
11.56
2.70
-6.43
-15.36
-23.64
-30.94
-37.04
-41.76
-45.05
-46.95
-47.69
-47.62
-47.20
-46.85
-46.90
-47.43
-48.34
-49.34
-50.05
-50.08
-49.05
-46.76
-43.20
-38.57
-33.20
-27.46
-21.64
-15.98
-10.70
-6.01
-2.12
0.86
2.98
4.41
5.40
6.09
6.55
6.75
6.68
6.37
5.91
5.34
4.63
3.67
2.38
0.78
-1.00
-2.82
-4.61
-6.44
-8.47
-10.89
-13.82
-17.25
-21.04
-24.93
-28.59
-31.63
-33.75
-34.76
-34.71
-33.88
-32.76
-31.97
-32.09
-33.69
-37.17
-42.82
-50.83
-61.16
-73.51
-87.31
-101.62
-115.29
-127.31
-137.02
-144.20
-148.76
-150.43
-148.69
-143.00
-133.16
-119.45
-102.62
-83.46
-62.50
-39.91
-15.98
8.38
31.35
50.72
64.92
73.80
78.96
83.35
90.47
103.48
124.48
153.90
191.30
235.87
286.31
340.24
393.49
440.27
474.10
489.54
483.47
457.27
416.89
370.61
325.58
285.72
251.51
221.26
192.86
164.07
134.42
105.27
78.07
52.54
26.44
-3.13
-38.30
-79.42
-126.58
-177.79
-229.06
-275.77
-314.29
-342.12
-357.17
-357.79
-335.69
-290.70
-234.25
-181.82
-142.03
-114.93
-96.75
-84.12
-75.91
-71.69
-74.22
-83.94
-97.74
-110.78
-119.44
-122.72
-121.55
-117.66
-110.68
-101.76
-91.41
-79.33
-65.18
-49.52
-33.72
-19.10
-6.31
4.71
13.52
20.31
26.01
31.65
37.53
43.03
47.25
49.61
50.34
49.90
49.47
50.42
53.59
58.78
64.88
70.61
75.03
77.84
78.90
78.40
76.61
73.74
69.90
65.15
59.70
53.89
48.08
42.46
37.15
32.17
27.56
23.37
19.67
16.47
13.69
11.18
8.75
6.25
3.62
0.86
-2.05
-5.20
-8.73
-12.74
-17.21
-22.02
-26.96
-31.67
-35.72
-38.56
-39.61
-38.46
-35.04
-29.72
-23.20
-16.25
-9.49
-3.16
2.75
8.37
13.70
18.52
22.47
25.19
26.54
26.59
25.62
24.01
22.08
20.04
17.91
15.61
13.08
10.29
7.32
4.30
1.35
-1.40
-3.90
-6.13
-8.09
-9.79
-11.31
-12.81
-14.53
-16.78
-19.74
-23.32
-27.14
-30.46
-32.51
-32.67
-30.69
-26.73
-21.32
-15.07
-8.49
-1.97
4.31
10.27
15.76
20.56
24.41
27.04
28.31
28.18
26.82
24.52
21.71
18.85
16.27
14.01
11.70
8.68
4.23
-2.10
-10.28
-19.86
-30.18
-40.58
-50.55
-59.75
-67.95
-75.14
-81.53
-87.51
-93.55
-99.76
-105.76
-110.61
-113.16
-112.40
-107.93
-100.01
-89.43
-77.08
-63.79
-50.17
-36.88
-24.73
-14.83
-8.18
-5.33
-5.96
-9.02
-13.20
-17.66
-22.42
-28.16
-35.65
-45.03
-55.49
-65.46
-73.21
-77.59
-78.52
-77.17
-75.47
-75.30
-77.63
-82.12
-87.36
-91.66
-93.94
-94.17
-93.26
-92.54
-93.29
-96.45
-102.50
-111.18
-121.08
-129.28
-131.73
-124.52
-105.80
-77.31
-44.36
-13.96
7.89
18.58
19.62
15.51
11.67
12.33
19.50
33.15
52.16
75.25
101.43
129.76
158.76
185.95
208.11
222.13
226.21
220.86
208.92
194.86
183.23
177.06
176.97
181.16
186.40
189.42
188.10
181.90
171.69
159.00
145.28
131.51
118.13
105.26
92.88
81.08
70.04
59.90
50.69
42.29
34.42
26.80
19.19
11.47
3.61
-4.46
-12.89
-21.93
-31.92
-43.10
-55.54
-69.18
-83.93
-99.72
-116.41
-133.57
-150.24
-164.94
-176.02
-182.10
-182.46
-177.16
-166.88
-152.50
-135.02
-115.52
-95.17
-75.28
-57.06
-41.23
-27.83
-16.26
-5.68
4.38
13.67
21.23
25.96
27.24
25.44
21.89
18.43
16.75
17.66
20.97
25.69
30.57
34.63
37.36
38.56
38.18
36.28
33.04
28.78
24.02
19.27
14.87
10.83
6.76
2.24
-2.76
-7.98
-13.14
-18.07
-22.72
-26.89
-29.91
-30.46
-26.76
-16.71
0.37
22.61
45.89
65.06
75.93
76.64
67.90
52.31
34.06
16.91
3.08
-6.31
-10.83
-10.16
-4.49
4.90
15.82
27.05
37.96
48.32
58.80
70.30
84.18
101.70
123.57
141.27
147.12
138.12
115.42
81.14
36.48
-15.04
-66.45
-109.12
-135.81
-143.17
-133.58
-116.53
-97.14
-79.07
-63.51
-50.23
-39.25
-31.15
-26.92
-26.59
-29.86
-33.23
-32.35
-23.89
-7.70
12.77
34.24
53.56
68.85
79.36
86.59
91.65
95.08
96.44
89.46
73.54
51.57
29.90
10.00
-6.94
-20.91
-31.65
-39.38
-44.79
-47.84
-49.00
-48.96
-48.71
-48.33
-47.94
-47.75
-48.03
-48.97
-49.75
-50.06
-49.93
-49.97
-50.34
-51.16
-52.36
-53.61
-54.32
-53.31
-50.03
-44.63
-38.02
-30.93
-24.01
-17.53
-11.53
-5.84
-0.06
5.87
11.70
16.90
21.07
24.01
25.66
26.21
26.00
25.51
25.14
25.07
25.13
25.02
24.42
23.11
21.09
18.62
16.06
13.69
11.58
9.56
7.30
4.44
0.79
-3.72
-8.92
-14.44
-19.62
-23.46
-24.78
-22.42
-15.67
-4.69
9.35
24.42
38.17
48.67
55.01
57.41
56.66
53.25
46.90
36.59
21.34
1.19
-22.37
-46.64
-68.73
-86.52
-99.24
-107.22
-111.12
-111.37
-107.96
-100.77
-90.14
-77.05
-62.92
-49.07
-36.29
-24.66
-13.77
-3.13
7.52
18.00
27.84
36.39
43.22
48.23
51.79
54.68
57.80
61.93
67.39
74.00
80.98
87.18
91.40
92.67
90.47
84.90
76.56
66.37
55.25
43.87
32.37
20.44
7.46
-7.00
-22.89
-39.27
-54.40
-66.09
-72.29
-72.00
-66.01
-57.30
-50.69
-51.89
-65.88
-95.17
-138.44
-189.97
-240.60
-279.77
-298.31
-290.85
-256.89
-200.61
-129.21
-51.13
25.55
94.00
149.12
187.83
209.41
215.56
209.98
197.38
182.08
166.94
152.98
139.95
127.19
114.31
101.53
89.47
78.82
69.98
63.03
57.69
53.46
49.79
46.15
42.04
37.14
31.34
24.80
17.89
11.08
4.70
-1.25
-7.14
-13.45
-20.53
-28.24
-35.86
-42.34
-46.65
-48.24
-47.27
-44.50
-41.00
-37.65
-34.87
-32.49
-30.00
-26.76
-22.36
-16.73
-10.15
-3.16
3.65
9.62
14.19
16.91
17.53
16.09
12.99
8.93
4.73
1.20
-1.15
-2.12
-1.89
-0.83
0.62
2.09
3.32
4.20
4.68
4.77
4.59
4.30
4.07
4.07
4.35
4.88
5.53
6.18
6.74
7.14
7.27
6.99
6.23
5.13
4.09
3.67
4.38
6.42
9.54
13.18
16.71
19.72
22.13
24.08
25.67
26.85
27.34
26.80
25.01
22.07
18.29
14.15
10.09
6.46
3.45
1.10
-0.62
-1.80
-2.55
-3.00
-3.27
-3.48
-3.74
-4.18
-4.90
-5.93
-7.25
-8.81
-10.55
-12.42
-14.36
-16.21
-17.67
-18.35
-17.88
-16.02
-12.81
-8.51
-3.49
1.87
7.29
12.54
17.33
21.26
23.84
24.69
23.76
21.41
18.29
15.13
12.40
10.22
8.40
6.62
4.61
2.34
-0.07
-2.47
-4.77
-7.05
-9.41
-11.96
-14.74
-17.76
-21.08
-24.71
-28.62
-32.59
-36.11
-38.51
-39.16
-37.64
-33.98
-28.56
-22.06
-15.20
-8.56
-2.60
2.45
6.42
9.26
10.97
11.65
11.47
10.66
9.46
8.09
6.71
5.44
4.25
3.07
1.84
0.54
-0.70
-1.67
-2.18
-2.20
-1.88
-1.57
-1.64
-2.41
-4.02
-6.43
-9.38
-12.45
-15.05
-16.52
-16.30
-14.09
-10.05
-4.67
1.24
6.92
11.74
15.31
17.52
18.34
17.90
16.40
14.14
11.49
8.83
6.51
4.74
3.57
2.91
2.58
2.41
2.28
2.16
2.11
2.23
2.51
2.85
2.98
2.59
1.42
-0.66
-3.62
-7.29
-11.33
-15.33
-18.69
-20.79
-21.12
-19.47
-16.06
-11.46
-6.44
-1.67
2.50
5.99
8.94
11.50
13.68
15.38
16.48
16.94
16.82
16.29
15.51
14.57
13.49
12.24
10.85
9.38
7.96
6.71
5.67
4.73
3.69
2.31
0.39
-2.18
-5.41
-9.20
-13.30
-17.38
-20.93
-23.37
-24.14
-22.91
-19.68
-14.84
-9.05
-3.03
2.65
7.64
11.88
15.46
18.49
21.05
23.10
24.60
25.46
25.72
25.43
24.76
23.84
22.74
21.47
20.07
18.61
17.24
16.20
15.64
15.60
15.97
16.50
16.92
17.04
16.68
15.76
14.27
12.29
10.13
8.37
7.79
9.19
13.08
19.47
27.77
37.06
46.33
54.91
62.62
69.73
76.67
83.69
90.58
96.58
100.61
101.45
97.96
89.15
74.22
52.71
24.70
-8.79
-45.64
-82.73
-116.54
-144.08
-163.67
-175.31
-180.51
-181.56
-180.76
-179.84
-179.84
-181.24
-184.15
-188.29
-192.80
-196.03
-195.72
-189.48
-175.59
-153.62
-124.74
-91.24
-55.94
-21.45
10.34
38.26
61.64
80.14
93.62
102.23
106.54
107.49
106.22
103.68
100.35
96.10
90.46
82.93
73.55
63.33
54.42
49.82
52.81
65.86
89.42
121.05
155.56
186.46
208.15
218.16
217.92
211.91
205.33
201.71
201.53
202.53
201.28
194.91
182.13
163.10
138.43
108.50
73.46
33.95
-7.91
-48.26
-82.37
-106.08
-117.29
-116.66
-107.16
-92.71
-76.74
-61.27
-46.94
-33.78
-21.87
-11.70
-3.82
1.56
4.84
6.94
8.78
10.95
13.48
15.83
17.08
16.19
12.32
5.05
-5.36
-18.05
-31.81
-45.34
-57.63
-68.00
-76.17
-82.10
-86.04
-88.53
-90.41
-92.56
-95.56
-99.35
-103.18
-105.90
-106.46
-104.32
-99.54
-92.70
-84.49
-75.51
-66.14
-56.63
-47.20
-38.13
-29.63
-21.83
-14.74
-8.36
-2.75
1.93
5.48
7.81
8.97
9.15
8.65
7.73
6.59
5.48
4.61
4.23
4.44
5.13
6.00
6.65
6.74
6.07
4.68
2.66
0.10
-2.94
-6.33
-9.92
-13.41
-16.47
-18.85
-20.33
-20.82
-20.15
-18.16
-14.66
-9.66
-3.49
3.22
9.58
14.70
17.83
18.66
17.27
14.13
9.91
5.28
0.80
-3.17
-6.43
-8.84
-10.30
-10.75
-10.28
-9.10
-7.62
-6.28
-5.47
-5.30
-5.61
-6.07
-6.35
-6.30
-6.05
-5.96
-6.44
-7.88
-10.46
-14.17
-18.75
-23.73
-28.39
-31.84
-33.17
-31.71
-27.28
-20.29
-11.68
-2.64
5.78
12.86
18.25
21.74
23.13
22.01
17.90
10.55
0.33
-11.61
-23.48
-33.37
-39.76
-41.88
-39.67
-33.68
-24.75
-13.93
-2.47
8.22
16.83
22.55
25.41
26.30
26.48
27.00
28.15
29.43
29.98
29.19
27.12
24.38
21.84
19.99
18.79
17.59
15.55
12.07
7.02
0.70
-6.31
-13.39
-19.96
-25.46
-29.33
-31.00
-30.06
-26.41
-20.35
-12.49
-3.63
5.46
14.18
22.12
28.96
34.50
38.64
41.36
42.86
43.48
43.64
43.69
43.76
43.67
43.01
41.23
37.88
32.81
26.19
18.46
10.17
1.77
-6.43
-14.16
-21.16
-27.15
-31.90
-35.36
-37.74
-39.45
-41.01
-42.81
-45.09
-47.81
-50.76
-53.52
-55.60
-56.50
-55.83
-53.48
-49.63
-44.70
-39.06
-32.89
-26.16
-18.76
-10.74
-2.53
5.11
11.41
15.91
18.70
20.32
21.48
22.63
23.73
24.40
24.08
22.38
19.15
14.46
8.47
1.42
-6.35
-14.24
-21.54
-27.46
-31.53
-33.79
-34.74
-35.14
-35.64
-36.60
-37.97
-39.59
-41.23
-42.80
-44.30
-45.80
-47.29
-48.81
-50.37
-51.92
-53.28
-53.93
-53.10
-49.94
-43.82
-34.69
-23.16
-10.41
2.13
13.18
21.97
28.28
32.44
34.97
36.35
36.77
36.17
34.31
31.05
26.50
21.11
15.60
10.76
7.22
5.32
4.97
5.71
6.79
7.46
7.09
5.40
2.56
-0.84
-3.83
-5.32
-4.40
-0.58
6.07
15.05
25.59
36.84
47.93
58.08
66.58
72.91
76.63
77.52
75.51
70.84
64.20
56.86
50.47
46.66
46.37
49.26
53.69
57.22
57.58
53.61
45.71
35.52
25.13
16.14
9.12
3.65
-1.07
-5.58
-9.67
-12.52
-13.22
-11.35
-7.24
-1.84
3.72
8.52
11.99
13.81
13.59
10.86
5.33
-2.73
-12.16
-20.93
-26.74
-27.73
-23.01
-12.96
1.02
17.00
33.13
47.95
60.47
69.86
75.32
76.01
71.43
61.81
48.30
32.74
17.22
3.49
-7.39
-15.12
-20.08
-23.01
-24.85
-26.50
-28.62
-31.58
-35.36
-39.66
-44.10
-48.41
-52.54
-56.57
-60.53
-64.24
-67.33
-69.41
-70.44
-70.77
-71.16
-72.41
-75.04
-79.00
-83.69
-88.34
-92.44
-96.12
-100.16
-105.53
-112.88
-121.93
-131.44
-139.65
-145.13
-147.62
-148.44
-150.13
-155.52
-166.44
-182.72
-201.85
-219.39
-229.92
-228.27
-210.61
-175.52
-124.64
-62.55
4.10
68.08
123.42
166.85
198.26
219.90
234.66
244.48
249.71
249.59
243.31
230.89
213.34
192.22
169.06
144.68
119.17
92.44
64.73
36.74
9.36
-16.84
-41.84
-65.79
-89.61
-114.67
-141.96
-171.14
-200.33
-226.46
-246.40
-257.97
-259.81
-252.96
-240.24
-224.23
-205.49
-182.41
-152.56
-114.37
-67.79
-12.98
47.76
110.23
169.72
222.33
265.17
296.06
313.98
320.13
319.82
317.89
316.39
314.66
310.94
303.73
292.46
277.51
246.87
199.00
142.72
88.85
41.93
1.92
-31.48
-57.33
-76.72
-90.27
-96.96
-97.81
-95.85
-94.40
-94.89
-97.44
-99.14
-99.46
-98.43
-94.90
-88.86
-81.63
-74.75
-68.12
-60.66
-51.24
-39.79
-26.39
-10.59
6.88
24.06
38.85
51.00
61.19
70.38
78.81
86.71
94.91
103.84
113.35
118.16
114.49
101.66
82.64
61.10
40.26
22.95
10.98
4.74
3.17
5.14
8.65
11.87
13.26
11.43
6.57
-0.89
-10.24
-20.54
-30.14
-38.47
-45.60
-52.77
-61.94
-74.94
-93.05
-116.59
-145.35
-171.29
-188.65
-193.62
-185.63
-167.53
-144.16
-120.74
-100.99
-86.19
-75.11
-65.92
-57.01
-48.13
-40.31
-34.84
-32.50
-33.13
-35.62
-37.96
-37.74
-33.42
-25.56
-16.19
-7.50
-0.89
3.00
4.14
2.91
1.80
2.84
6.23
11.03
16.79
23.63
31.31
38.90
45.16
52.79
63.99
78.20
92.97
106.52
118.46
129.14
139.15
149.42
166.04
193.36
230.51
272.60
314.46
352.22
382.61
402.49
379.46
300.87
185.60
69.26
-22.62
-81.78
-110.81
-117.57
-112.09
-104.09
-96.25
-89.75
-87.05
-90.80
-101.46
-116.75
-133.42
-148.59
-160.10
-162.80
-153.86
-136.24
-114.13
-92.45
-74.60
-62.37
-56.02
-54.34
-52.83
-47.87
-38.96
-28.01
-17.80
-10.19
-6.07
-5.42
-7.45
-9.81
-10.61
-9.42
-6.96
-4.50
-2.97
-2.91
-4.45
-7.37
-10.76
-13.73
-15.88
-17.25
-18.14
-18.83
-19.53
-20.39
-21.51
-22.99
-24.87
-27.14
-29.56
-31.78
-33.24
-33.30
-31.47
-27.59
-21.92
-15.04
-7.65
-0.36
6.40
12.43
17.63
21.88
25.11
27.23
28.33
28.66
28.57
28.42
28.42
28.59
28.76
28.76
28.45
27.82
26.87
25.55
23.77
21.38
18.33
14.70
10.75
6.81
3.15
-0.13
-3.13
-6.08
-9.18
-12.55
-16.21
-20.06
-23.94
-27.63
-30.77
-32.93
-33.70
-32.83
-30.34
-26.57
-22.10
-17.47
-13.09
-9.11
-5.44
-1.91
1.52
4.78
7.62
9.83
11.30
12.10
12.44
12.52
12.43
12.13
11.50
10.50
9.27
8.01
7.00
6.34
5.95
5.59
4.98
3.98
2.62
1.12
-0.30
-1.55
-2.70
-4.06
-5.94
-8.55
-11.85
-15.44
-18.72
-20.98
-21.62
-20.36
-17.32
-12.90
-7.70
-2.27
2.96
7.75
11.99
15.62
18.60
20.88
22.38
23.09
23.06
22.39
21.27
19.88
18.42
17.04
15.79
14.59
13.32
11.81
10.00
7.95
5.78
3.68
1.75
0.02
-1.61
-3.27
-5.12
-7.24
-9.68
-12.42
-15.46
-18.74
-22.09
-25.20
-27.59
-28.78
-28.44
-26.48
-23.16
-18.93
-14.31
-9.66
-5.23
-1.06
2.85
6.45
9.64
12.28
14.23
15.52
16.21
16.49
16.52
16.45
16.30
16.08
15.79
15.50
15.31
15.30
15.46
15.68
15.72
15.35
14.41
12.85
10.77
8.44
6.15
4.21
2.81
1.95
1.44
0.94
0.06
-1.49
-3.76
-6.58
-9.55
-12.17
-14.04
-14.86
-14.58
-13.32
-11.38
-9.08
-6.71
-4.42
-2.21
0.09
2.63
5.51
8.64
11.80
14.60
16.74
18.00
18.35
17.90
16.88
15.45
13.80
12.06
10.40
9.02
8.08
7.61
7.46
7.28
6.72
5.49
3.58
1.21
-1.26
-3.51
-5.40
-7.01
-8.58
-10.38
-12.63
-15.39
-18.64
-22.19
-25.66
-28.53
-30.21
-30.23
-28.41
-24.92
-20.27
-15.09
-9.93
-5.11
-0.72
3.27
6.89
10.11
12.86
15.06
16.72
17.83
18.41
18.40
17.80
16.62
15.01
13.22
11.50
10.01
8.76
7.65
6.50
5.22
3.76
2.18
0.48
-1.32
-3.28
-5.50
-8.01
-10.83
-13.88
-17.09
-20.30
-23.37
-26.14
-28.48
-30.22
-31.27
-31.50
-30.78
-28.93
-25.65
-20.30
-11.80
1.16
19.39
42.30
67.56
91.48
110.23
121.34
124.39
120.71
112.21
100.30
85.77
69.43
52.91
38.81
29.76
27.02
29.65
34.98
39.96
42.48
41.81
38.02
31.06
20.41
5.57
-12.83
-32.20
-48.28
-56.65
-54.75
-43.28
-26.16
-9.04
3.09
7.88
6.26
1.41
-3.16
-5.53
-6.02
-6.51
-8.98
-14.26
-21.65
-29.76
-37.47
-44.54
-51.39
-58.36
-65.13
-70.60
-73.47
-73.06
-69.80
-65.23
-61.37
-59.84
-61.22
-64.74
-68.59
-70.62
-69.13
-63.68
-55.18
-45.58
-37.02
-30.93
-27.38
-25.13
-22.20
-16.73
-7.71
4.69
19.22
34.05
47.24
57.05
62.44
63.43
61.34
58.62
58.07
61.62
69.40
79.46
88.55
93.48
92.45
85.60
74.49
61.14
46.95
32.36
17.22
1.51
-14.12
-28.43
-40.17
-48.75
-54.54
-58.60
-62.09
-65.51
-68.58
-70.44
-70.27
-67.94
-64.12
-59.92
-56.23
-53.24
-50.24
-46.10
-39.80
-31.04
-20.31
-8.69
2.63
12.81
21.57
29.15
36.19
43.50
51.87
61.80
73.44
86.47
100.26
114.01
126.93
138.37
147.83
155.03
159.99
163.13
165.22
167.09
169.03
170.55
170.20
166.09
156.63
141.18
120.16
94.63
65.85
34.97
3.32
-27.45
-55.25
-78.11
-94.83
-105.41
-111.00
-113.17
-113.14
-111.35
-107.63
-101.70
-93.80
-84.84
-76.14
-68.94
-64.02
-61.65
-61.64
-63.64
-67.16
-71.46
-75.67
-78.66
-79.37
-77.00
-71.35
-62.80
-52.23
-40.67
-29.06
-18.08
-8.21
0.03
5.94
8.52
6.55
-1.07
-14.97
-34.86
-59.28
-85.66
-110.81
-131.78
-146.73
-155.56
-159.86
-162.25
-165.19
-170.02
-176.44
-182.93
-187.54
-188.69
-185.72
-178.74
-168.43
-155.83
-142.29
-129.45
-119.04
-112.33
-109.55
-109.69
-110.83
-111.27
-110.43
-109.11
-108.70
-109.70
-110.49
-107.26
-95.31
-71.11
-34.21
12.36
63.28
113.07
158.14
197.43
231.56
261.13
285.39
302.08
308.72
304.24
290.02
269.61
247.32
226.46
208.36
192.67
178.38
165.19
153.95
146.36
143.73
146.05
151.50
157.17
160.19
158.92
153.40
144.87
134.74
123.82
112.08
99.21
85.39
71.93
61.25
56.10
58.70
69.93
88.90
112.97
138.05
159.05
170.71
168.68
151.03
119.03
77.12
31.48
-11.93
-49.12
-78.72
-101.46
-118.80
-131.86
-141.08
-146.64
-149.18
-150.04
-150.88
-152.94
-156.39
-160.44
-163.71
-165.04
-163.84
-160.24
-154.70
-147.79
-139.84
-130.95
-120.96
-109.70
-97.19
-83.76
-70.06
-56.90
-45.07
-35.12
-27.32
-21.79
-18.48
-17.30
-17.94
-19.87
-22.44
-25.11
-27.65
-30.23
-33.19
-36.87
-41.41
-46.64
-52.29
-58.07
-63.76
-69.19
-74.29
-79.14
-84.01
-89.42
-95.64
-102.48
-109.12
-114.46
-117.55
-118.01
-116.10
-112.38
-107.53
-102.28
-97.59
-94.59
-94.01
-95.29
-96.04
-92.30
-79.98
-56.76
-23.33
16.74
58.41
96.88
128.77
152.08
165.58
168.33
159.95
141.30
115.08
85.59
57.51
34.38
17.60
6.22
-2.14
-10.01
-18.87
-28.58
-37.53
-43.26
-43.40
-36.27
-21.39
0.66
28.71
61.42
97.48
135.45
173.53
209.38
240.50
264.99
282.41
294.10
302.71
310.95
320.37
330.72
340.23
346.88
349.62
348.79
345.73
341.39
334.90
323.31
302.77
270.53
226.80
175.43
122.64
75.29
38.25
12.99
-2.33
-11.50
-18.55
-26.94
-39.10
-57.01
-81.44
-112.16
-147.91
-186.18
-223.26
-255.06
-278.93
-294.58
-304.97
-313.75
-324.01
-336.77
-350.28
-360.50
-362.48
-352.73
-329.69
-294.74
-249.69
-196.79
-139.11
-80.50
-24.77
25.57
69.40
107.47
130.87
130.89
106.44
67.25
27.08
-3.86
-18.63
-21.29
-16.72
-9.64
-1.73
8.24
20.78
36.24
53.61
70.59
83.42
88.97
84.98
72.60
56.03
41.13
32.50
31.66
37.03
44.92
51.87
55.26
54.93
49.00
38.39
26.32
15.34
5.33
-5.66
-18.27
-31.09
-40.64
-44.43
-40.82
-31.29
-20.55
-14.32
-16.84
-29.02
-48.82
-72.82
-95.65
-113.42
-124.97
-131.55
-135.14
-136.80
-136.20
-132.46
-125.18
-114.86
-102.51
-89.11
-75.02
-59.87
-43.12
-24.83
-6.12
11.27
25.91
37.41
46.56
54.63
62.69
71.01
78.99
85.47
89.46
90.71
89.87
88.19
86.99
87.02
88.14
89.43
89.68
88.05
84.60
80.17
75.89
72.45
69.65
66.59
62.22
55.95
48.00
39.13
30.09
21.18
12.21
2.83
-7.07
-17.23
-27.14
-36.42
-45.00
-53.11
-61.00
-68.64
-75.71
-81.68
-86.08
-88.65
-89.28
-88.02
-84.96
-80.34
-74.51
-67.99
-61.31
-54.89
-48.87
-43.04
-37.01
-30.31
-22.58
-13.75
-4.07
6.02
15.89
24.99
32.78
38.93
43.21
45.54
45.96
44.58
41.59
37.21
31.68
25.27
18.17
10.46
2.01
-7.49
-18.49
-31.30
-45.87
-61.65
-77.59
-92.46
-105.22
-115.30
-122.83
-128.42
-133.05
-137.68
-142.94
-148.84
-154.62
-158.77
-159.35
-154.59
-143.62
-126.90
-106.12
-83.79
-62.29
-43.26
-27.33
-14.36
-3.82
4.84
12.06
18.19
23.44
27.84
31.09
32.62
31.80
28.36
22.62
15.47
8.11
1.60
-3.51
-7.19
-9.73
-11.37
-12.08
-11.50
-9.12
-4.46
2.75
12.66
25.22
40.29
57.60
76.68
96.89
117.45
137.59
156.52
173.47
187.65
198.38
205.24
208.31
208.27
206.26
203.48
200.86
198.84
197.42
196.33
195.25
193.76
191.34
187.35
181.21
172.71
162.16
150.32
138.12
126.21
114.82
103.80
93.11
83.09
74.67
69.05
67.16
69.09
73.85
79.65
84.50
87.05
87.09
85.62
84.48
85.59
90.41
99.44
111.91
125.51
136.59
140.74
134.16
114.98
84.22
45.61
4.23
-35.29
-70.18
-99.95
-125.61
-148.38
-168.69
-186.10
-199.89
-209.85
-216.59
-221.24
-224.71
-227.25
-228.41
-227.48
-224.14
-218.75
-212.45
-206.61
-202.26
-199.74
-198.80
-198.73
-198.71
-197.94
-195.77
-191.99
-186.95
-181.66
-177.41
-175.02
-174.16
-173.33
-170.47
-163.97
-153.50
-139.95
-124.75
-108.91
-92.71
-75.95
-58.53
-40.79
-23.49
-7.45
6.79
18.85
28.37
34.94
38.35
39.03
38.25
37.73
39.00
42.68
48.20
54.23
59.25
62.13
62.30
59.58
53.95
45.52
34.78
22.63
10.39
-0.54
-9.21
-15.47
-19.97
-23.85
-28.13
-33.37
-39.50
-46.04
-52.43
-58.14
-62.74
-65.74
-66.60
-64.87
-60.29
-52.96
-43.23
-31.56
-18.42
-4.30
10.14
23.99
36.18
45.75
52.23
55.82
57.41
58.22
59.37
61.43
64.22
67.02
68.79
68.78
66.82
63.35
59.26
55.39
52.20
49.64
47.23
44.39
40.73
36.15
30.81
24.94
18.70
12.19
5.56
-0.92
-6.91
-12.04
-16.14
-19.40
-22.32
-25.66
-30.11
-36.00
-43.18
-51.07
-58.86
-65.71
-70.97
-74.26
-75.43
-74.55
-71.80
-67.40
-61.54
-54.28
-45.45
-34.76
-21.97
-7.11
9.20
25.74
40.92
53.04
60.85
63.76
62.04
56.80
49.71
42.64
37.26
34.65
35.32
39.19
45.75
54.18
63.29
71.68
77.86
80.77
80.16
76.85
72.45
68.85
67.42
68.72
72.39
77.53
82.93
87.26
89.01
86.75
79.46
67.08
50.80
32.80
15.56
1.08
-9.61
-16.48
-19.96
-20.55
-18.63
-14.60
-9.16
-3.45
1.21
3.75
3.66
1.16
-3.10
-8.35
-14.01
-19.89
-26.00
-32.22
-38.19
-43.18
-46.36
-47.19
-45.67
-42.45
-38.56
-35.11
-32.80
-31.81
-31.89
-32.56
-33.34
-33.85
-33.76
-32.65
-30.12
-25.86
-19.81
-12.29
-3.86
4.77
13.00
20.36
26.54
31.35
34.79
37.08
38.72
40.46
43.01
46.89
52.09
58.13
64.16
69.28
72.71
74.02
73.02
69.68
64.20
57.06
49.14
41.64
35.76
32.27
31.24
32.03
33.61
34.97
35.60
35.51
35.02
34.35
33.41
31.80
29.03
24.83
19.29
12.84
5.97
-0.98
-7.99
-15.25
-22.96
-31.06
-39.10
-46.38
-52.17
-56.04
-58.03
-58.67
-58.81
-59.30
-60.75
-63.32
-66.59
-69.77
-71.88
-72.02
-69.63
-64.58
-57.16
-48.00
-37.87
-27.59
-17.77
-8.80
-0.70
6.84
14.36
22.30
30.81
39.58
47.89
54.97
60.23
63.49
64.93
64.92
63.82
61.89
59.30
56.11
52.26
47.67
42.18
35.77
28.67
21.42
14.77
9.37
5.51
2.95
1.10
-0.76
-3.09
-5.90
-8.81
-11.13
-12.19
-11.49
-8.94
-4.89
0.01
4.93
9.21
12.48
14.82
16.57
18.22
20.15
22.46
25.04
27.58
29.80
31.49
32.71
33.72
34.89
36.54
38.71
41.13
43.24
44.53
44.67
43.71
41.95
39.68
37.08
34.09
30.49
26.09
20.79
14.56
7.36
-0.82
-9.92
-19.63
-29.30
-38.02
-44.87
-49.22
-50.85
-50.00
-47.14
-42.81
-37.46
-31.47
-25.24
-19.17
-13.70
-9.10
-5.37
-2.18
0.98
4.55
8.67
13.06
17.16
20.29
21.89
21.68
19.61
15.81
10.50
3.86
-3.92
-12.56
-21.66
-30.65
-38.84
-45.59
-50.52
-53.64
-55.40
-56.46
-57.42
-58.58
-59.82
-60.74
-60.96
-60.30
-58.83
-56.87
-54.74
-52.71
-50.86
-49.07
-47.01
-44.22
-40.15
-34.43
-27.00
-18.26
-8.91
0.19
8.34
15.13
20.47
24.33
26.63
27.18
25.83
22.65
18.03
12.60
7.01
1.71
-3.09
-7.42
-11.35
-14.83
-17.70
-19.78
-20.96
-21.29
-20.98
-20.30
-19.52
-18.87
-18.45
-18.29
-18.35
-18.44
-18.34
-17.90
-17.02
-15.77
-14.27
-12.63
-10.91
-9.13
-7.30
-5.60
-4.26
-3.57
-3.61
-4.23
-5.00
-5.41
-5.00
-3.56
-1.06
2.35
6.51
11.36
16.85
22.86
29.05
34.83
39.45
42.30
43.09
42.10
39.98
37.56
35.47
33.88
32.56
31.04
29.01
26.45
23.70
21.16
19.17
17.76
16.78
15.91
14.86
13.47
11.71
9.68
7.51
5.27
2.93
0.42
-2.36
-5.34
-8.33
-11.02
-13.17
-14.72
-15.76
-16.38
-16.46
-15.64
-13.40
-9.31
-3.34
4.12
12.38
20.71
28.52
35.54
41.70
47.07
51.78
56.00
59.89
63.50
66.69
69.13
70.49
70.57
69.49
67.58
65.17
62.39
59.00
54.61
48.86
41.69
33.39
24.46
15.50
7.07
-0.34
-6.23
-10.16
-11.89
-11.56
-9.76
-7.49
-6.01
-6.52
-9.81
-16.03
-24.60
-34.36
-43.87
-51.81
-57.27
-59.92
-59.94
-57.87
-54.41
-50.24
-45.86
-41.53
-37.24
-32.79
-28.01
-22.86
-17.60
-12.64
-8.42
-5.14
-2.73
-0.92
0.50
1.49
1.80
1.05
-1.00
-4.28
-8.39
-12.69
-16.59
-19.71
-22.02
-23.74
-25.24
-26.88
-28.83
-31.04
-33.27
-35.22
-36.65
-37.49
-37.82
-37.81
-37.64
-37.39
-37.09
-36.70
-36.13
-35.26
-33.94
-31.97
-29.12
-25.23
-20.23
-14.20
-7.36
0.03
7.69
15.34
22.84
30.09
36.99
43.39
48.95
53.17
55.60
56.12
55.11
53.52
52.57
53.30
56.22
61.18
67.47
74.22
80.62
86.14
90.61
94.15
97.15
100.16
103.69
107.97
112.66
116.74
118.58
116.35
108.48
94.21
74.00
49.48
23.14
-2.34
-24.71
-42.68
-56.09
-65.56
-72.07
-76.48
-79.28
-80.71
-80.92
-80.13
-78.65
-76.68
-74.24
-71.18
-67.38
-63.00
-58.48
-54.50
-51.55
-49.75
-48.68
-47.51
-45.45
-42.00
-37.15
-31.38
-25.36
-19.77
-15.07
-11.40
-8.63
-6.46
-4.52
-2.54
-0.43
1.70
3.57
4.76
4.98
4.10
2.15
-0.68
-4.18
-8.20
-12.67
-17.51
-22.60
-27.73
-32.58
-36.80
-40.12
-42.37
-43.49
-43.47
-42.33
-40.14
-37.02
-33.25
-29.25
-25.42
-22.16
-19.70
-18.04
-17.00
-16.28
-15.58
-14.61
-13.28
-11.57
-9.58
-7.48
-5.39
-3.45
-1.78
-0.51
0.24
0.32
-0.30
-1.53
-3.21
-5.14
-7.20
-9.44
-11.97
-14.84
-17.91
-20.84
-23.32
-25.18
-26.56
-27.77
-29.05
-30.33
-31.21
-31.14
-29.70
-26.80
-22.65
-17.50
-11.57
-4.91
2.42
10.34
18.78
27.78
37.65
48.82
61.68
76.11
91.21
105.35
116.52
122.92
123.56
118.53
108.89
96.36
82.84
70.12
59.54
51.96
47.63
46.15
46.39
46.74
45.49
41.39
34.11
24.34
13.29
2.08
-8.91
-20.28
-33.31
-49.30
-68.88
-91.50
-115.37
-137.73
-155.40
-165.58
-166.63
-158.85
-144.76
-128.55
-114.78
-106.72
-105.04
-107.62
-110.51
-109.74
-103.06
-90.72
-75.04
-59.18
-45.69
-35.71
-28.94
-24.21
-20.24
-16.20
-12.02
-8.04
-4.72
-2.14
0.21
3.15
7.48
13.49
20.77
28.30
34.97
40.01
43.36
45.49
46.82
47.37
46.58
43.61
37.80
29.30
19.16
9.20
1.31
-3.56
-5.42
-4.98
-3.19
-0.96
1.21
3.04
4.63
6.26
7.56
8.28
8.69
9.42
10.81
13.01
15.44
17.61
19.34
19.62
17.94
14.90
11.93
10.32
11.04
13.58
16.90
19.72
19.30
13.66
2.98
-10.55
-24.22
-35.48
-43.87
-50.02
-45.92
-28.45
-1.63
26.28
49.62
64.34
75.60
87.08
100.10
113.66
124.54
127.90
120.13
100.19
69.75
33.38
-3.56
-35.35
-57.48
-69.19
-72.23
-69.25
-62.64
-54.37
-45.60
-37.68
-31.55
-27.61
-26.63
-28.88
-33.55
-39.00
-43.56
-45.82
-45.43
-42.64
-38.12
-33.33
-29.80
-28.43
-29.03
-30.55
-31.40
-30.48
-27.57
-23.49
-19.87
-18.29
-19.45
-22.90
-27.34
-31.34
-33.85
-34.40
-32.98
-29.83
-25.44
-20.51
-16.00
-13.00
-12.36
-14.48
-19.11
-25.51
-32.78
-40.15
-47.15
-53.48
-58.89
-63.17
-66.08
-67.50
-67.41
-65.76
-62.24
-56.15
-46.52
-32.41
-13.60
9.06
33.59
57.37
77.97
93.95
105.20
112.74
118.06
122.32
125.90
128.41
129.07
127.31
123.15
117.21
110.43
103.67
97.39
91.63
86.21
80.98
75.92
71.08
66.37
61.44
55.78
49.04
41.34
33.40
26.28
20.98
17.93
16.91
17.12
17.56
17.39
16.17
13.88
10.84
7.52
4.36
1.62
-0.69
-2.74
-4.79
-6.94
-9.10
-11.09
-12.73
-13.98
-15.08
-16.39
-18.24
-20.82
-24.05
-27.64
-31.10
-33.73
-34.84
-33.77
-30.20
-24.19
-16.23
-7.06
2.60
12.25
21.64
30.72
39.42
47.59
55.03
61.54
67.13
71.93
76.20
80.10
83.68
86.85
89.48
91.54
93.08
94.22
94.94
95.06
94.15
91.70
87.21
80.30
70.75
58.43
43.31
25.43
5.07
-17.16
-40.22
-62.75
-83.39
-101.02
-115.01
-125.22
-131.83
-135.08
-135.24
-132.54
-127.36
-120.32
-112.19
-103.73
-95.42
-87.41
-79.59
-71.81
-64.14
-56.87
-50.41
-45.05
-40.81
-37.41
-34.47
-31.63
-28.74
-25.82
-22.99
-20.33
-17.91
-15.68
-13.66
-11.92
-10.63
-9.89
-9.70
-9.90
-10.22
-10.38
-10.18
-9.63
-8.87
-8.17
-7.82
-8.09
-9.06
-10.62
-12.39
-13.79
-14.24
-13.32
-10.93
-7.27
-2.76
2.12
6.95
11.40
15.23
18.28
20.47
21.81
22.47
22.67
22.64
22.51
22.30
21.99
21.47
20.66
19.51
18.03
16.32
14.56
12.99
11.74
10.84
10.14
9.42
8.50
7.29
5.85
4.26
2.62
0.98
-0.62
-2.18
-3.76
-5.53
-7.75
-10.64
-14.19
-18.00
-21.33
-23.44
-23.90
-22.79
-20.70
-18.40
-16.47
-15.09
-14.07
-13.08
-11.86
-10.50
-9.27
-8.53
-8.49
-9.11
-10.03
-10.74
-10.61
-9.05
-5.53
0.32
8.57
18.94
30.64
42.49
53.11
61.30
66.37
68.27
67.59
65.17
61.87
58.32
54.86
51.55
48.30
44.92
41.24
37.19
32.90
28.74
25.25
22.95
22.12
22.72
24.41
26.70
29.11
31.22
32.66
33.05
31.98
29.20
24.65
18.64
11.71
4.57
-2.16
-7.98
-12.68
-16.25
-18.85
-20.79
-22.49
-24.43
-27.09
-30.84
-35.77
-41.68
-48.05
-54.28
-59.91
-64.88
-69.46
-74.13
-79.18
-84.55
-89.75
-93.99
-96.36
-96.05
-92.50
-85.43
-75.01
-61.89
-47.20
-32.37
-18.81
-7.53
1.03
7.03
11.00
13.55
15.20
16.31
17.14
17.90
18.73
19.63
20.46
21.00
21.03
20.53
19.70
18.93
18.53
18.59
18.86
18.89
18.27
16.88
14.91
12.81
10.97
9.48
8.06
6.20
3.50
-0.14
-4.36
-8.47
-11.69
-13.41
-13.35
-11.60
-8.51
-4.55
-0.16
4.32
8.65
12.69
16.32
19.42
21.92
23.77
25.05
25.88
26.39
26.61
26.52
25.97
24.88
23.32
21.48
19.69
18.20
17.10
16.24
15.35
14.12
12.44
10.41
8.25
6.20
4.33
2.51
0.46
-2.09
-5.29
-9.06
-13.10
-16.95
-20.11
-22.12
-22.72
-21.80
-19.47
-15.97
-11.61
-6.74
-1.69
3.26
7.87
11.93
15.29
17.91
19.83
21.16
22.03
22.58
22.92
23.13
23.24
23.27
23.14
22.75
21.99
20.74
19.00
16.84
14.39
11.76
9.03
6.21
3.27
0.18
-3.05
-6.43
-10.00
-13.76
-17.68
-21.59
-25.11
-27.79
-29.16
-28.89
-26.92
-23.37
-18.56
-12.88
-6.72
-0.51
5.40
10.70
15.23
18.91
21.76
23.83
25.12
25.62
25.38
24.53
23.26
21.81
20.34
18.92
17.57
16.29
15.13
14.17
13.47
13.00
12.66
12.29
11.74
10.98
9.98
8.76
7.27
5.42
3.15
0.51
-2.27
-4.75
-6.47
-7.01
-6.18
-4.09
-1.06
2.40
5.78
8.60
10.52
11.36
11.13
10.04
8.43
6.69
5.08
3.60
1.99
-0.20
-3.43
-7.89
-13.43
-19.59
-25.71
-31.22
-35.70
-39.00
-41.10
-42.01
-41.76
-40.39
-38.11
-35.29
-32.46
-30.17
-28.81
-28.44
-28.75
-29.11
-28.75
-26.98
-23.38
-17.88
-10.77
-2.57
6.12
14.73
22.79
29.91
35.75
40.06
42.69
43.74
43.57
42.76
41.94
41.63
42.02
42.93
43.96
44.67
44.80
44.39
43.78
43.39
43.60
44.57
46.29
48.65
51.54
54.94
58.85
63.16
67.63
71.90
75.70
78.96
81.68
83.76
84.77
84.09
81.27
76.46
70.65
65.33
61.79
60.49
60.73
60.90
59.22
54.31
45.67
33.75
19.79
5.47
-7.36
-17.17
-23.22
-25.72
-25.84
-25.07
-24.63
-25.06
-26.16
-27.35
-28.08
-28.07
-27.37
-26.29
-25.17
-24.35
-24.19
-24.91
-26.61
-29.27
-32.78
-37.21
-42.84
-50.11
-59.42
-70.76
-83.48
-96.38
-107.98
-117.00
-122.70
-125.01
-124.39
-121.45
-116.78
-110.77
-103.86
-96.75
-90.42
-85.92
-83.91
-84.27
-85.96
-87.39
-87.00
-83.82
-77.82
-69.74
-60.82
-52.29
-45.03
-39.38
-35.15
-31.81
-28.79
-25.69
-22.39
-19.08
-16.04
-13.46
-11.32
-9.46
-7.66
-5.90
-4.39
-3.50
-3.61
-4.88
-7.02
-9.39
-11.11
-11.45
-10.01
-6.90
-2.56
2.40
7.47
12.28
16.55
19.93
22.03
22.49
21.21
18.49
15.01
11.62
9.03
7.69
7.69
8.94
11.25
14.37
18.03
21.86
25.44
28.34
30.23
30.99
30.65
29.39
27.45
25.05
22.32
19.36
16.18
12.77
9.09
5.08
0.68
-4.14
-9.24
-14.37
-19.02
-22.58
-24.44
-24.25
-22.03
-18.24
-13.56
-8.71
-4.23
-0.31
3.10
6.21
9.19
12.05
14.65
16.80
18.34
19.26
19.70
19.85
19.92
20.09
20.45
21.02
21.74
22.48
23.02
23.14
22.70
21.64
20.11
18.39
16.84
15.80
15.48
15.88
16.78
17.76
18.35
18.23
17.35
16.00
14.64
13.79
13.80
14.73
16.37
18.32
20.08
21.16
21.18
20.02
17.77
14.82
11.63
8.69
6.29
4.57
3.46
2.73
2.08
1.24
-0.05
-1.85
-4.09
-6.55
-8.94
-11.04
-12.75
-14.05
-15.01
-15.66
-15.99
-15.93
-15.51
-14.82
-14.06
-13.46
-13.28
-13.67
-14.68
-16.23
-18.08
-19.87
-21.16
-21.53
-20.70
-18.55
-15.21
-10.95
-6.17
-1.28
3.36
7.46
10.82
13.39
15.21
16.45
17.29
17.89
18.33
18.64
18.85
19.02
19.23
19.56
20.00
20.41
20.61
20.45
19.86
18.90
17.66
16.18
14.45
12.45
10.18
7.77
5.44
3.43
1.91
0.84
-0.02
-1.06
-2.73
-5.27
-8.66
-12.57
-16.40
-19.53
-21.42
-21.82
-20.83
-18.74
-15.93
-12.71
-9.22
-5.52
-1.66
2.19
5.75
8.71
10.86
12.15
12.80
13.12
13.37
13.63
13.83
13.85
13.60
13.15
12.60
12.09
11.64
11.18
10.56
9.62
8.30
6.63
4.78
2.91
1.19
-0.32
-1.65
-2.95
-4.44
-6.27
-8.51
-11.08
-13.76
-16.22
-18.06
-18.90
-18.42
-16.52
-13.30
-9.07
-4.28
0.63
5.29
9.46
13.02
15.92
18.13
19.66
20.57
20.94
20.91
20.58
20.03
19.30
18.38
17.24
15.88
14.35
12.75
11.22
9.82
8.56
7.30
5.89
4.15
2.04
-0.42
-3.04
-5.60
-7.89
-9.73
-11.10
-12.11
-13.00
-14.08
-15.61
-17.66
-20.05
-22.32
-23.86
-24.11
-22.74
-19.77
-15.56
-10.67
-5.67
-0.97
3.21
6.84
9.94
12.53
14.58
16.03
16.87
17.13
16.89
16.28
15.37
14.19
12.78
11.18
9.53
8.02
6.84
6.13
5.88
5.92
5.97
5.73
4.99
3.74
2.11
0.34
-1.36
-2.87
-4.25
-5.65
-7.27
-9.27
-11.76
-14.70
-17.94
-21.19
-24.08
-26.15
-26.97
-26.26
-23.95
-20.27
-15.67
-10.68
-5.79
-1.33
2.60
6.05
9.09
11.77
14.05
15.88
17.20
18.06
18.52
18.64
18.47
18.00
17.20
16.07
14.68
13.12
11.55
10.06
8.68
7.35
5.97
4.44
2.68
0.63
-1.71
-4.26
-6.94
-9.57
-12.03
-14.18
-16.00
-17.55
-19.03
-20.65
-22.54
-24.75
-27.15
-29.47
-31.33
-32.31
-32.06
-30.34
-27.16
-22.73
-17.50
-11.94
-6.51
-1.55
2.75
6.35
9.25
11.56
13.37
14.85
16.09
17.13
17.93
18.35
18.27
17.65
16.53
15.10
13.59
12.26
11.24
10.57
10.15
9.78
9.24
8.33
6.89
4.90
2.42
-0.39
-3.28
-5.99
-8.33
-10.22
-11.71
-13.01
-14.42
-16.24
-18.62
-21.51
-24.60
-27.39
-29.33
-29.95
-28.99
-26.40
-22.36
-17.18
-11.26
-5.03
1.11
6.80
11.79
15.96
19.28
21.77
23.51
24.54
24.94
24.79
24.22
23.34
22.25
21.02
19.65
18.19
16.67
15.14
13.63
12.11
10.52
8.82
7.04
5.28
3.66
2.24
0.87
-0.70
-2.74
-5.29
-8.05
-10.42
-11.72
-11.44
-9.44
-5.89
-1.13
4.58
11.09
18.41
26.58
35.58
45.35
55.73
66.51
77.40
87.95
97.50
105.23
110.36
112.29
110.85
106.35
99.51
91.31
82.80
74.90
68.30
63.41
60.33
58.79
58.20
57.72
56.49
53.83
49.42
43.39
36.12
28.07
19.57
10.77
1.69
-7.66
-17.23
-26.87
-36.44
-45.85
-55.09
-64.16
-73.03
-81.56
-89.51
-96.58
-102.47
-107.02
-110.10
-111.65
-111.62
-109.90
-106.42
-101.28
-94.72
-87.19
-79.15
-70.96
-62.69
-54.19
-45.21
-35.64
-25.65
-15.66
-6.22
2.19
9.33
15.15
19.75
23.25
25.75
27.40
28.50
29.56
31.12
33.52
36.70
40.08
42.86
44.35
44.32
43.08
41.18
38.98
36.31
32.57
27.06
19.53
10.41
0.60
-8.91
-17.61
-25.53
-33.09
-40.58
-47.96
-54.70
-60.10
-63.64
-65.25
-65.29
-64.36
-63.06
-61.80
-60.73
-59.74
-58.57
-56.89
-54.50
-51.34
-47.58
-43.51
-39.48
-35.74
-32.45
-29.60
-27.09
-24.80
-22.70
-20.81
-19.22
-18.03
-17.25
-16.80
-16.53
-16.30
-16.02
-15.69
-15.40
-15.22
-15.19
-15.32
-15.63
-16.12
-16.83
-17.70
-18.61
-19.29
-19.38
-18.43
-15.99
-11.68
-5.36
2.85
12.53
22.95
33.31
42.91
51.25
58.15
63.65
67.85
70.81
72.52
72.92
72.05
70.02
67.13
63.74
60.19
56.72
53.42
50.24
47.05
43.71
40.11
36.14
31.79
27.10
22.17
17.13
12.00
6.66
0.92
-5.39
-12.21
-19.22
-25.90
-31.72
-36.41
-40.06
-43.12
-46.17
-49.63
-53.61
-57.83
-61.67
-64.31
-64.88
-62.66
-57.23
-48.58
-37.15
-23.80
-9.60
4.37
17.29
28.64
38.20
45.85
51.41
54.63
55.21
53.03
48.31
41.61
33.70
25.34
17.07
9.11
1.50
-5.77
-12.59
-18.65
-23.58
-27.00
-28.63
-28.42
-26.56
-23.42
-19.40
-14.89
-10.03
-4.82
0.92
7.35
14.47
22.08
29.81
37.23
43.97
49.79
54.59
58.39
61.36
63.87
66.38
69.43
73.31
77.97
82.87
87.11
89.73
90.01
87.76
83.34
77.48
70.96
64.34
57.93
51.84
46.13
40.95
36.50
32.80
29.65
26.65
23.36
19.56
15.46
11.59
8.65
7.14
7.03
7.69
7.99
6.72
2.97
-3.47
-12.10
-22.03
-32.41
-42.72
-52.87
-63.08
-73.65
-84.86
-97.03
-110.53
-125.55
-141.41
-156.53
-168.30
-174.05
-172.10
-162.41
-146.57
-126.87
-105.12
-82.00
-57.38
-31.23
-4.54
20.63
41.94
57.84
68.31
74.56
78.02
79.33
78.00
72.99
63.69
50.61
35.45
20.38
7.05
-4.18
-14.16
-24.47
-36.59
-51.27
-68.03
-85.45
-101.44
-114.03
-122.16
-125.96
-126.64
-125.89
-124.95
-124.09
-122.64
-119.60
-114.16
-106.30
-96.47
-85.02
-71.64
-55.43
-35.75
-13.23
9.87
30.38
45.59
54.57
58.51
59.81
60.61
61.64
62.11
60.63
56.34
49.64
41.84
34.22
27.21
20.15
11.95
1.94
-9.39
-20.66
-30.06
-36.20
-38.63
-37.97
-35.35
-31.81
-27.84
-23.28
-17.66
-10.64
-2.42
6.31
14.64
21.81
27.44
31.54
34.28
35.83
36.22
35.38
33.20
29.70
25.06
19.64
13.90
8.30
3.21
-1.19
-4.82
-7.77
-10.09
-11.83
-13.00
-13.59
-13.65
-13.23
-12.42
-11.23
-9.71
-7.97
-6.25
-4.90
-4.28
-4.63
-5.95
-7.98
-10.35
-12.66
-14.59
-15.83
-16.15
-15.39
-13.49
-10.57
-6.92
-2.91
1.14
4.99
8.60
11.96
15.09
17.92
20.34
22.23
23.50
24.19
24.36
24.15
23.61
22.79
21.70
20.29
18.55
16.51
14.20
11.72
9.19
6.77
4.65
2.96
1.73
0.91
0.34
-0.14
-0.66
-1.32
-2.18
-3.29
-4.74
-6.60
-8.92
-11.68
-14.71
-17.73
-20.35
-22.15
-22.76
-21.94
-19.65
-16.07
-11.54
-6.53
-1.48
3.22
7.39
10.99
14.06
16.66
18.83
20.55
21.82
22.69
23.31
23.79
24.23
24.60
24.80
24.74
24.44
24.02
23.64
23.41
23.34
23.30
23.14
22.75
22.09
21.20
20.09
18.77
17.20
15.34
13.25
10.99
8.68
6.41
4.17
1.91
-0.46
-3.00
-5.66
-8.27
-10.62
-12.39
-13.31
-13.16
-11.82
-9.35
-5.98
-2.08
1.92
5.64
8.78
11.23
13.00
14.17
14.85
15.15
15.14
14.83
14.30
13.61
12.87
12.18
11.55
10.98
10.33
9.51
8.50
7.42
6.53
6.02
6.01
6.36
6.75
6.83
6.31
5.16
3.49
1.53
-0.54
-2.61
-4.65
-6.63
-8.53
-10.27
-11.73
-12.83
-13.51
-13.74
-13.47
-12.59
-11.02
-8.71
-5.73
-2.34
1.10
4.27
6.93
9.07
10.84
12.45
14.02
15.52
16.78
17.53
17.61
16.95
15.66
13.94
12.01
10.07
8.25
6.62
5.19
3.94
2.87
1.94
1.10
0.26
-0.67
-1.69
-2.74
-3.68
-4.35
-4.64
-4.54
-4.14
-3.61
-3.11
-2.76
-2.62
-2.76
-3.24
-4.08
-5.29
-6.75
-8.21
-9.37
-9.91
-9.62
-8.46
-6.61
-4.40
-2.20
-0.26
1.31
2.54
3.54
4.39
5.12
5.69
6.09
6.42
6.83
7.55
8.65
10.04
11.36
12.15
11.95
10.49
7.81
4.19
0.15
-3.82
-7.32
-10.14
-12.29
-13.97
-15.49
-17.25
-19.58
-22.70
-26.48
-30.46
-33.83
-35.65
-35.13
-32.09
-27.16
-21.77
-17.56
-15.56
-15.53
-15.71
-13.39
-6.16
6.68
23.18
39.00
48.85
48.51
36.51
14.74
-12.07
-37.58
-55.33
-60.19
-49.52
-24.05
11.83
50.69
83.66
102.82
103.64
86.47
56.34
21.27
-10.33
-32.07
-40.92
-37.28
-24.10
-5.65
13.82
31.09
44.55
54.10
60.80
66.19
71.79
78.70
87.40
97.72
108.84
119.36
127.57
131.86
131.23
125.73
116.61
105.92
95.87
87.79
81.49
75.13
65.84
50.81
28.38
-1.21
-35.98
-72.90
-108.98
-142.24
-171.85
-197.94
-220.77
-240.08
-254.87
-263.70
-265.28
-259.16
-246.01
-227.53
-205.98
-183.52
-161.79
-141.78
-123.96
-108.41
-94.89
-82.63
-70.38
-56.64
-40.31
-21.25
-0.48
20.09
38.55
53.66
65.25
74.02
80.98
86.97
92.49
97.77
103.07
108.64
114.61
120.76
126.54
131.27
134.38
135.65
135.16
133.19
130.07
126.14
121.77
117.34
113.19
109.39
105.62
101.25
95.52
88.00
78.79
68.55
58.09
48.02
38.39
28.72
18.33
6.67
-6.35
-20.27
-34.20
-46.90
-56.93
-63.01
-64.19
-60.32
-52.09
-40.96
-28.68
-16.76
-6.05
3.31
11.65
19.34
26.45
32.76
37.82
41.21
42.65
42.07
39.63
35.60
30.33
24.18
17.43
10.26
2.80
-4.87
-12.70
-20.56
-28.24
-35.44
-41.71
-46.62
-49.84
-51.39
-51.63
-51.25
-51.00
-51.50
-53.08
-55.78
-59.45
-63.83
-68.61
-73.43
-77.92
-81.66
-84.33
-85.61
-85.34
-83.36
-79.59
-74.12
-67.23
-59.53
-51.85
-45.12
-39.98
-36.65
-34.92
-34.23
-33.89
-33.29
-32.06
-30.02
-27.27
-23.98
-20.35
-16.57
-12.78
-9.20
-6.18
-4.23
-3.98
-5.97
-10.29
-16.48
-23.33
-29.14
-32.26
-31.75
-28.00
-22.85
-19.00
-18.92
-23.52
-31.50
-39.68
-44.43
-43.33
-36.26
-25.39
-13.97
-4.85
0.67
2.90
3.18
2.89
2.99
3.99
6.30
10.36
16.57
24.86
34.41
43.68
50.72
53.79
51.82
44.73
33.49
19.89
6.17
-5.45
-13.27
-16.56
-15.63
-11.79
-6.91
-2.91
-1.23
-2.46
-6.26
-11.47
-16.54
-19.89
-20.33
-17.29
-10.89
-1.90
8.58
19.34
29.41
38.29
45.98
52.95
59.84
67.17
74.98
82.85
90.06
95.94
100.28
103.35
105.70
107.78
109.60
110.69
110.34
107.96
103.42
97.11
89.74
82.14
74.92
68.42
62.73
57.79
53.49
49.78
46.75
44.53
43.20
42.65
42.53
42.29
41.44
39.71
37.19
34.27
31.39
28.86
26.66
24.44
21.59
17.50
11.66
3.86
-5.77
-16.70
-28.08
-38.99
-48.63
-56.59
-62.88
-67.86
-72.01
-75.70
-79.05
-81.96
-84.28
-85.93
-86.98
-87.56
-87.75
-87.48
-86.61
-84.95
-82.42
-79.11
-75.28
-71.21
-67.12
-63.05
-58.82
-54.17
-48.91
-42.98
-36.46
-29.41
-21.72
-13.02
-2.73
9.63
24.13
40.22
56.76
72.36
85.81
96.50
104.55
110.69
115.80
120.51
124.95
128.69
131.04
131.38
129.46
125.43
119.65
112.50
104.10
94.33
82.87
69.32
53.35
34.81
13.84
-8.88
-31.90
-52.97
-69.42
-79.09
-81.22
-77.09
-69.73
-62.83
-59.35
-60.34
-64.86
-70.78
-76.03
-79.50
-81.31
-82.16
-82.61
-82.60
-81.69
-79.51
-76.34
-73.14
-71.13
-71.31
-73.99
-78.67
-84.21
-89.30
-92.81
-94.08
-92.97
-89.76
-84.92
-78.91
-72.02
-64.32
-55.80
-46.55
-36.89
-27.40
-18.73
-11.35
-5.33
-0.28
4.40
9.32
14.83
20.88
27.15
33.30
39.19
44.95
50.82
56.93
63.16
69.09
74.22
78.14
80.69
81.87
81.80
80.64
78.59
75.82
72.49
68.71
64.51
59.87
54.76
49.26
43.52
37.78
32.24
26.99
22.04
17.28
12.52
7.60
2.37
-3.16
-8.77
-14.01
-18.31
-21.17
-22.31
-21.78
-19.85
-16.94
-13.47
-9.82
-6.29
-3.05
-0.22
2.23
4.40
6.38
8.24
9.93
11.35
12.40
13.09
13.43
13.51
13.35
12.88
12.05
10.85
9.39
7.89
6.57
5.52
4.71
3.85
2.65
0.87
-1.55
-4.41
-7.40
-10.18
-12.53
-14.37
-15.75
-16.75
-17.47
-18.01
-18.50
-19.12
-20.06
-21.48
-23.29
-25.28
-27.04
-28.19
-28.41
-27.61
-25.76
-22.96
-19.35
-15.05
-10.27
-5.30
-0.48
3.89
7.61
10.64
13.05
14.95
16.45
17.57
18.37
18.91
19.32
19.76
20.35
21.12
21.97
22.78
23.42
23.82
23.99
23.96
23.71
23.19
22.34
21.10
19.45
17.44
15.12
12.60
10.02
7.51
5.19
3.02
0.84
-1.63
-4.66
-8.34
-12.50
-16.62
-20.02
-21.95
-21.92
-19.71
-15.52
-9.81
-3.24
3.54
10.05
15.97
21.14
25.53
29.15
32.07
34.37
36.28
38.01
39.78
41.67
43.62
45.44
46.92
47.96
48.68
49.35
50.28
51.69
53.50
55.45
57.15
58.21
58.29
57.00
53.83
48.19
39.64
28.05
13.83
-2.20
-19.05
-35.91
-52.30
-68.04
-82.95
-96.67
-108.51
-117.67
-123.53
-125.91
-125.14
-121.99
-117.44
-112.38
-107.44
-102.83
-98.40
-93.87
-89.03
-83.91
-78.70
-73.71
-69.16
-65.15
-61.62
-58.31
-54.72
-50.28
-44.40
-36.81
-27.65
-17.52
-7.17
2.60
11.11
17.73
21.84
22.87
20.52
15.06
7.35
-1.32
-9.76
-17.31
-23.94
-30.02
-35.86
-41.38
-46.22
-49.93
-52.26
-53.23
-52.95
-51.37
-48.17
-42.89
-35.33
-25.88
-15.56
-5.81
2.00
7.12
9.59
10.07
9.54
8.82
8.41
8.43
8.78
9.30
9.86
10.37
10.72
10.84
10.66
10.23
9.74
9.42
9.47
9.89
10.45
10.75
10.42
9.27
7.39
5.12
2.91
1.15
0.09
-0.15
0.48
2.01
4.45
7.80
12.06
17.22
23.24
29.91
36.95
43.91
50.31
55.71
59.77
62.32
63.35
63.13
62.08
60.78
59.61
58.57
57.21
54.83
50.89
45.31
38.52
31.12
23.51
15.67
7.28
-1.84
-11.42
-20.74
-28.93
-35.43
-40.29
-44.09
-47.55
-51.09
-54.54
-57.18
-57.98
-56.04
-50.81
-42.27
-30.92
-17.64
-3.44
10.65
23.68
34.87
43.75
50.25
54.88
58.62
62.60
67.58
73.61
79.93
85.25
88.32
88.44
85.68
80.76
74.58
67.79
60.61
52.81
44.03
33.96
22.54
9.83
-4.12
-19.43
-36.25
-54.56
-73.91
-93.31
-111.44
-126.93
-138.62
-145.60
-147.08
-142.46
-131.56
-114.99
-94.34
-71.91
-50.11
-30.67
-14.15
-0.13
12.26
23.58
33.75
42.15
48.13
51.54
52.82
52.74
51.96
50.65
48.58
45.38
40.88
35.35
29.41
23.79
19.00
15.18
12.19
9.75
7.67
5.82
4.22
2.84
1.63
0.41
-1.02
-2.92
-5.56
-9.06
-13.37
-18.09
-22.51
-25.79
-27.21
-26.43
-23.67
-19.51
-14.75
-10.03
-5.72
-1.89
1.51
4.56
7.28
9.62
11.53
13.01
14.10
14.81
15.18
15.23
15.02
14.67
14.34
14.14
14.12
14.25
14.37
14.32
13.91
13.05
11.80
10.30
8.71
7.20
5.81
4.46
2.94
1.01
-1.58
-4.92
-8.91
-13.12
-16.88
-19.44
-20.14
-18.74
-15.41
-10.75
-5.55
-0.52
3.89
7.53
10.46
12.82
14.70
16.07
16.84
16.89
16.20
14.88
13.13
11.19
9.23
7.33
5.48
3.66
1.91
0.32
-1.03
-2.14
-3.13
-4.19
-5.50
-7.16
-9.14
-11.33
-13.62
-16.03
-18.66
-21.56
-24.70
-27.91
-30.83
-33.06
-34.19
-33.97
-32.27
-29.19
-25.02
-20.18
-15.18
-10.47
-6.34
-2.86
0.06
2.56
4.75
6.61
8.08
9.16
9.97
10.75
11.71
12.96
14.39
15.77
16.75
17.15
16.87
16.03
14.77
13.24
11.50
9.58
7.54
5.44
3.43
1.61
-0.02
-1.56
-3.22
-5.21
-7.67
-10.54
-13.56
-16.31
-18.29
-19.09
-18.48
-16.48
-13.37
-9.62
-5.72
-2.08
1.10
3.82
6.23
8.47
10.54
12.31
13.61
14.31
14.53
14.48
14.47
14.63
14.87
14.92
14.42
13.20
11.32
9.05
6.80
4.85
3.35
2.24
1.40
0.64
-0.11
-0.86
-1.55
-2.13
-2.55
-2.83
-3.02
-3.15
-3.16
-2.91
-2.20
-0.89
1.10
3.70
6.81
10.29
14.02
17.86
21.63
25.10
28.04
30.23
31.62
32.27
32.34
32.01
31.36
30.42
29.17
27.61
25.83
23.97
22.15
20.41
18.63
16.65
14.28
11.51
8.50
5.58
3.08
1.18
-0.13
-1.05
-1.80
-2.58
-3.49
-4.62
-6.06
-7.94
-10.32
-13.09
-15.85
-18.01
-18.96
-18.33
-16.10
-12.67
-8.72
-4.92
-1.74
0.66
2.43
3.89
5.26
6.60
7.73
8.36
8.27
7.46
6.13
4.59
3.16
1.99
1.15
0.54
0.07
-0.37
-0.89
-1.61
-2.60
-3.89
-5.43
-7.08
-8.65
-9.99
-11.00
-11.68
-12.17
-12.66
-13.33
-14.25
-15.29
-16.08
-16.16
-15.12
-12.80
-9.33
-5.09
-0.62
3.59
7.16
9.90
11.75
12.80
13.20
13.09
12.60
11.83
10.91
10.01
9.32
8.95
8.85
8.78
8.43
7.55
6.13
4.41
2.78
1.63
1.09
1.04
1.15
1.04
0.42
-0.83
-2.63
-4.73
-6.67
-7.96
-8.15
-7.02
-4.55
-1.01
3.24
7.76
12.15
16.11
19.51
22.40
24.99
27.41
29.59
31.09
31.32
29.82
26.54
21.97
16.96
12.29
8.36
5.12
2.20
-0.67
-3.57
-6.34
-8.75
-10.75
-12.40
-13.89
-15.37
-16.88
-18.38
-19.83
-21.22
-22.64
-24.20
-25.94
-27.79
-29.56
-30.95
-31.62
-31.32
-29.91
-27.47
-24.29
-20.75
-17.30
-14.28
-11.94
-10.33
-9.42
-9.08
-9.16
-9.53
-10.07
-10.73
-11.50
-12.44
-13.57
-14.88
-16.23
-17.46
-18.42
-19.05
-19.45
-19.77
-20.19
-20.78
-21.48
-22.13
-22.60
-22.78
-22.58
-22.00
-20.97
-19.41
-17.21
-14.28
-10.60
-6.17
-1.13
4.36
10.09
15.84
21.39
26.54
31.08
34.80
37.47
38.95
39.15
38.19
36.39
34.28
32.42
31.29
31.07
31.64
32.65
33.60
34.00
33.48
31.74
28.69
24.32
18.89
12.77
6.41
0.21
-5.65
-11.16
-16.40
-21.30
-25.56
-28.70
-30.18
-29.77
-27.66
-24.44
-20.88
-17.65
-15.07
-13.16
-11.66
-10.31
-8.98
-7.73
-6.69
-5.98
-5.55
-5.21
-4.69
-3.79
-2.44
-0.72
1.27
3.50
5.99
8.78
11.83
14.90
17.63
19.60
20.56
20.47
19.50
17.88
15.76
13.15
10.05
6.55
2.91
-0.37
-2.77
-3.90
-3.65
-2.15
0.27
3.33
6.78
10.49
14.34
18.18
21.77
24.89
27.34
29.03
29.94
30.12
29.64
28.61
27.15
25.45
23.70
22.00
20.39
18.74
16.92
14.78
12.34
9.74
7.23
5.02
3.21
1.70
0.25
-1.46
-3.67
-6.44
-9.60
-12.80
-15.58
-17.52
-18.36
-18.02
-16.60
-14.38
-11.80
-9.25
-7.02
-5.14
-3.57
-2.27
-1.25
-0.55
-0.24
-0.41
-1.14
-2.36
-3.83
-5.12
-5.66
-4.89
-2.17
2.67
9.18
16.33
22.94
28.16
31.66
33.63
34.52
35.46
37.07
39.15
40.89
41.51
40.74
38.73
35.84
32.41
29.98
29.51
30.90
33.25
35.84
38.69
42.18
46.66
52.11
60.34
72.17
86.70
101.43
113.90
122.56
126.68
126.00
120.80
114.75
111.29
111.99
116.18
122.38
129.30
135.81
140.91
127.10
86.96
27.37
-34.88
-86.31
-122.71
-145.92
-159.14
-164.58
-163.53
-154.41
-137.92
-117.73
-99.45
-87.53
-83.19
-84.73
-89.01
-92.93
-92.36
-85.01
-71.13
-53.40
-34.94
-17.98
-3.80
7.05
14.46
20.11
25.50
31.18
36.66
41.42
45.46
49.14
52.74
56.17
59.61
62.84
65.18
65.74
64.06
60.26
54.80
48.08
40.26
31.44
21.54
10.37
-2.20
-15.94
-30.24
-44.28
-57.27
-68.73
-78.51
-86.72
-93.64
-99.53
-104.49
-108.48
-111.27
-112.61
-112.36
-110.54
-107.32
-102.99
-97.83
-92.07
-85.91
-79.53
-73.12
-66.92
-61.13
-55.88
-51.22
-47.07
-43.29
-39.76
-36.44
-33.36
-30.64
-28.38
-26.63
-25.29
-24.16
-23.03
-21.74
-20.32
-18.92
-17.78
-17.09
-16.90
-17.09
-17.43
-17.63
-17.54
-17.12
-16.52
-16.08
-16.19
-17.22
-19.30
-22.27
-25.59
-28.46
-30.18
-30.37
-29.18
-27.25
-25.35
-24.01
-23.24
-22.49
-20.95
-18.00
-13.65
-8.67
-4.33
-1.93
-2.13
-4.63
-8.20
-11.33
-12.85
-12.56
-11.29
-10.41
-11.02
-13.62
-18.08
-24.03
-30.90
-37.61
-42.13
-41.67
-33.90
-18.54
1.53
20.80
33.47
36.22
29.98
19.34
10.01
5.83
7.03
10.82
13.63
13.40
10.69
7.86
7.35
10.27
16.00
22.88
29.45
35.34
41.21
48.00
56.00
64.19
70.48
72.63
69.30
60.82
49.16
37.13
27.31
21.12
18.55
18.44
19.17
19.32
18.09
15.41
11.66
7.42
3.16
-0.87
-4.64
-8.30
-12.00
-15.87
-19.90
-24.02
-28.18
-32.31
-36.34
-40.07
-43.11
-44.96
-45.06
-43.02
-38.78
-32.64
-25.26
-17.45
-10.02
-3.55
1.69
5.75
8.89
11.35
13.30
14.78
15.84
16.57
17.26
18.18
19.58
21.48
23.70
25.95
27.99
29.65
30.82
31.44
31.41
30.68
29.20
26.99
24.10
20.64
16.77
12.74
8.89
5.56
2.99
1.25
0.25
-0.19
-0.21
0.14
0.94
2.30
4.23
6.61
9.17
11.58
13.51
14.77
15.33
15.30
14.81
13.98
12.88
11.57
10.18
8.84
7.68
6.72
5.82
4.78
3.42
1.73
-0.14
-1.92
-3.41
-4.53
-5.36
-6.05
-6.75
-7.57
-8.60
-9.87
-11.36
-12.94
-14.30
-15.06
-14.86
-13.56
-11.32
-8.57
-5.84
-3.56
-1.93
-0.92
-0.30
0.16
0.65
1.21
1.72
1.99
1.72
0.67
-1.27
-4.06
-7.48
-11.17
-14.74
-17.84
-20.19
-21.55
-21.74
-20.57
-17.99
-14.03
-8.97
-3.22
2.65
8.08
12.62
15.98
18.09
18.98
18.71
17.32
14.74
10.92
5.92
-0.10
-6.79
-13.81
-20.78
-27.35
-33.17
-37.86
-40.97
-42.11
-41.12
-38.16
-33.87
-29.31
-25.73
-24.31
-25.75
-30.00
-36.11
-42.37
-46.63
-46.90
-41.84
-31.13
-15.48
3.67
24.47
44.87
62.95
77.06
86.19
90.19
89.87
86.68
82.22
77.71
73.69
70.18
66.94
63.81
60.78
57.79
54.66
50.99
46.52
41.34
36.02
31.32
27.80
25.63
24.46
23.75
23.05
22.17
21.20
20.41
19.97
19.92
20.15
20.51
20.91
21.32
21.68
21.84
21.52
20.41
18.35
15.50
12.36
9.56
7.65
6.88
7.19
8.28
9.79
11.45
13.13
14.73
16.15
17.27
18.01
18.37
18.47
18.54
18.79
19.39
20.37
21.56
22.58
23.02
22.59
21.22
19.21
17.03
15.21
14.28
14.36
15.12
15.94
16.24
15.70
14.64
13.63
13.59
15.49
19.77
26.13
33.63
41.11
47.38
51.67
53.06
50.88
44.98
35.53
23.12
8.70
-6.44
-21.25
-34.93
-47.81
-60.80
-72.62
-80.63
-82.56
-77.98
-68.00
-56.83
-45.71
-35.54
-26.97
-20.39
-16.40
-14.49
-14.63
-16.50
-19.65
-23.09
-25.90
-26.72
-23.82
-15.98
-3.30
12.24
27.32
38.20
42.42
39.26
30.33
18.82
7.92
-0.45
-6.32
-10.92
-15.88
-22.12
-29.84
-38.48
-47.17
-55.20
-62.19
-68.06
-72.69
-75.86
-77.23
-76.78
-74.82
-72.00
-69.23
-67.25
-66.44
-66.59
-67.00
-66.75
-65.07
-61.64
-56.57
-50.41
-43.90
-37.81
-32.63
-28.50
-25.21
-22.30
-19.38
-16.23
-12.92
-9.79
-7.19
-5.36
-4.32
-3.95
-4.02
-4.36
-4.81
-5.29
-5.70
-5.98
-6.12
-6.18
-6.34
-6.80
-7.69
-9.05
-10.69
-12.21
-13.17
-13.21
-12.20
-10.30
-7.85
-5.20
-2.66
-0.36
1.67
3.44
4.92
6.07
6.85
7.30
7.46
7.37
7.04
6.43
5.48
4.16
2.53
0.72
-1.11
-2.85
-4.44
-5.85
-7.12
-8.33
-9.61
-11.11
-12.94
-15.08
-17.34
-19.35
-20.71
-21.08
-20.30
-18.45
-15.81
-12.72
-9.50
-6.34
-3.33
-0.51
2.02
4.14
5.75
6.82
7.44
7.72
7.73
7.46
6.74
5.43
3.45
0.93
-1.85
-4.49
-6.74
-8.48
-9.82
-11.04
-12.46
-14.33
-16.76
-19.72
-23.02
-26.40
-29.53
-32.12
-33.97
-35.03
-35.41
-35.41
-35.28
-35.13
-34.78
-33.73
-31.29
-26.87
-20.21
-11.58
-1.63
8.80
19.03
28.74
37.98
46.95
55.75
64.13
71.56
77.45
81.50
83.90
85.29
86.48
88.11
90.26
92.54
94.22
94.56
93.09
89.66
84.30
77.11
68.23
57.93
46.77
35.60
25.45
17.15
11.12
7.20
4.92
3.77
3.51
4.19
5.92
8.52
11.35
13.47
14.00
12.51
9.17
4.58
-0.57
-5.79
-10.82
-15.52
-19.60
-22.61
-24.03
-23.65
-21.63
-18.62
-15.35
-12.46
-10.26
-8.77
-7.83
-7.27
-6.99
-6.95
-7.09
-7.34
-7.59
-7.66
-7.40
-6.69
-5.47
-3.83
-1.98
-0.18
1.34
2.50
3.37
4.14
5.01
6.07
7.17
8.05
8.43
8.15
7.27
6.01
4.65
3.41
2.35
1.43
0.54
-0.38
-1.30
-2.09
-2.65
-2.95
-3.08
-3.30
-3.86
-4.99
-6.77
-9.16
-11.95
-14.91
-17.74
-20.18
-22.01
-23.07
-23.25
-22.52
-20.87
-18.33
-14.93
-10.73
-5.89
-0.70
4.43
9.01
12.60
14.92
15.96
15.96
15.30
14.41
13.53
12.78
12.06
11.22
10.17
8.88
7.43
5.98
4.62
3.42
2.35
1.29
0.05
-1.62
-3.95
-7.06
-10.85
-15.05
-19.18
-22.68
-25.00
-25.68
-24.48
-21.45
-16.95
-11.58
-6.02
-0.86
3.47
6.72
8.76
9.57
9.29
8.22
6.81
5.50
4.58
4.10
3.88
3.74
3.71
4.13
5.53
8.42
12.98
18.99
25.77
32.51
38.40
42.95
46.08
48.08
49.44
50.56
51.62
52.45
52.65
51.82
49.68
46.20
41.48
35.74
29.27
22.46
15.79
9.85
5.10
1.78
-0.21
-1.31
-2.08
-2.96
-4.11
-5.41
-6.64
-7.61
-8.33
-8.96
-9.72
-10.69
-11.88
-13.14
-14.36
-15.49
-16.57
-17.70
-18.91
-20.15
-21.27
-22.08
-22.44
-22.30
-21.79
-21.14
-20.58
-20.26
-20.14
-20.09
-19.95
-19.67
-19.32
-19.06
-19.09
-19.49
-20.24
-21.25
-22.39
-23.51
-24.39
-24.75
-24.28
-22.80
-20.29
-16.99
-13.24
-9.39
-5.68
-2.20
1.04
4.05
6.78
9.16
11.13
12.70
13.88
14.74
15.29
15.51
15.37
14.86
14.06
13.10
12.19
11.45
10.94
10.55
10.08
9.32
8.16
6.61
4.83
3.03
1.39
-0.02
-1.19
-2.23
-3.29
-4.52
-6.07
-8.02
-10.33
-12.79
-14.94
-16.21
-16.06
-14.25
-10.87
-6.43
-1.65
2.82
6.48
9.12
10.68
11.18
10.61
9.05
6.69
3.98
1.52
-0.11
-0.58
0.02
1.26
2.45
2.92
2.16
-0.12
-3.89
-8.94
-14.80
-20.85
-26.47
-31.08
-34.32
-36.10
-36.63
-36.32
-35.61
-34.80
-33.81
-32.24
-29.45
-24.91
-18.57
-11.15
-3.91
1.81
5.15
6.12
5.56
4.57
4.01
4.09
4.47
4.61
4.25
3.57
3.01
3.00
3.64
4.65
5.53
5.86
5.44
4.33
2.67
0.59
-1.83
-4.53
-7.30
-9.74
-11.35
-11.67
-10.59
-8.37
-5.59
-2.91
-0.89
0.29
0.80
1.09
1.61
2.71
4.46
6.66
8.94
10.79
11.73
11.36
9.46
6.07
1.56
-3.43
-8.11
-11.67
-13.58
-13.71
-12.37
-10.14
-7.71
-5.55
-3.85
-2.51
-1.34
-0.14
1.13
2.39
3.52
4.46
5.24
5.97
6.73
7.57
8.42
9.18
9.73
10.01
10.00
9.74
9.26
8.60
7.76
6.76
5.58
4.24
2.76
1.22
-0.24
-1.50
-2.52
-3.38
-4.34
-5.69
-7.67
-10.30
-13.35
-16.37
-18.84
-20.31
-20.49
-19.32
-16.89
-13.46
-9.36
-5.03
-0.90
2.71
5.62
7.83
9.45
10.62
11.42
11.90
12.06
11.93
11.56
11.01
10.29
9.35
8.18
6.87
5.67
4.86
4.62
4.92
5.47
5.98
6.37
6.93
8.29
11.26
16.52
24.37
34.69
46.82
59.72
71.95
81.92
88.21
89.89
86.84
79.81
70.19
59.49
48.97
39.44
31.31
24.85
20.33
17.96
17.76
19.42
22.31
25.68
28.78
31.02
31.95
31.23
28.74
24.72
19.75
14.68
10.32
7.15
5.20
4.07
3.24
2.35
1.25
0.03
-1.12
-2.05
-2.69
-2.99
-2.93
-2.60
-2.15
-1.89
-2.23
-3.54
-5.99
-9.52
-13.84
-18.47
-23.04
-27.30
-31.28
-35.19
-39.24
-43.44
-47.54
-51.04
-53.37
-54.14
-53.26
-51.00
-47.91
-44.60
-41.64
-39.34
-37.75
-36.64
-35.66
-34.46
-32.83
-30.72
-28.15
-25.10
-21.36
-16.62
-10.66
-3.57
4.10
11.54
17.83
22.34
24.89
25.70
25.21
23.80
21.63
18.55
14.32
8.66
1.53
-6.92
-16.27
-26.03
-35.65
-44.66
-52.72
-59.58
-65.06
-69.00
-71.18
-71.35
-69.28
-64.93
-58.55
-50.83
-42.73
-35.25
-29.03
-24.16
-20.28
-16.86
-13.53
-10.31
-7.54
-5.61
-4.60
-4.29
-4.25
-4.09
-3.70
-3.22
-2.95
-3.05
-3.50
-4.14
-4.83
-5.53
-6.36
-7.46
-8.83
-10.32
-11.68
-12.69
-13.26
-13.51
-13.64
-13.91
-14.54
-15.67
-17.35
-19.52
-21.89
-23.91
-24.89
-24.18
-21.50
-17.04
-11.40
-5.37
0.40
5.52
9.88
13.48
16.31
18.31
19.42
19.67
19.25
18.39
17.28
15.97
14.37
12.34
9.83
6.89
3.63
0.30
-2.84
-5.51
-7.49
-8.65
-9.02
-8.77
-8.13
-7.31
-6.42
-5.47
-4.49
-3.65
-3.24
-3.56
-4.72
-6.41
-7.91
-8.28
-6.75
-3.00
2.71
9.60
16.77
23.45
29.21
33.89
37.47
39.88
41.03
40.91
39.72
37.88
35.90
34.12
32.60
31.18
29.58
27.58
25.14
22.34
19.29
16.09
12.78
9.38
5.91
2.43
-1.02
-4.45
-7.87
-11.33
-14.96
-18.84
-23.06
-27.50
-31.81
-35.42
-37.66
-38.03
-36.42
-33.09
-28.66
-23.82
-19.18
-15.15
-11.93
-9.55
-8.01
-7.25
-7.18
-7.62
-8.26
-8.68
-8.44
-7.22
-4.92
-1.68
2.07
5.85
9.21
11.86
13.70
14.71
14.92
14.26
12.61
9.91
6.13
1.45
-3.79
-9.18
-14.32
-18.86
-22.50
-24.96
-25.99
-25.42
-23.23
-19.66
-15.20
-10.50
-6.18
-2.68
-0.21
1.33
2.15
2.45
2.35
1.80
0.71
-0.89
-2.83
-4.73
-6.19
-6.93
-6.93
-6.32
-5.32
-4.02
-2.34
-0.14
2.63
5.76
8.74
10.84
11.35
9.77
5.98
0.38
-6.16
-12.48
-17.38
-19.94
-19.79
-17.17
-12.82
-7.73
-2.81
1.34
4.51
6.83
8.66
10.36
12.19
14.17
16.19
18.01
19.47
20.47
21.08
21.44
21.63
21.63
21.27
20.42
19.03
17.18
15.05
12.79
10.61
8.66
6.96
5.35
3.56
1.34
-1.37
-4.28
-6.74
-7.70
-6.24
-2.03
4.49
12.32
20.22
27.29
33.05
37.51
41.48
45.78
50.70
55.87
60.60
63.96
65.48
64.80
61.77
57.52
53.21
49.11
44.47
38.40
29.87
19.05
6.44
-7.29
-19.74
-28.67
-33.30
-34.19
-31.82
-26.84
-18.59
-7.06
6.76
23.24
42.54
63.46
83.93
102.64
118.43
132.18
144.70
143.54
122.14
85.15
45.30
12.98
-3.20
-10.12
-13.75
-17.28
-20.79
-23.34
-21.59
-14.15
-2.50
10.54
20.61
25.23
22.89
13.60
0.32
-13.03
-24.35
-35.53
-46.26
-55.89
-63.41
-69.52
-75.54
-82.23
-88.68
-94.37
-99.52
-104.16
-109.20
-112.73
-113.75
-111.58
-105.67
-95.98
-83.86
-71.39
-60.04
-50.70
-42.74
-35.16
-26.87
-17.38
-7.05
2.88
11.12
17.29
21.62
24.94
27.90
31.00
34.58
39.02
44.66
51.61
59.51
67.06
72.36
73.25
68.40
57.88
43.41
27.77
14.05
4.64
0.46
0.85
3.92
7.34
9.11
8.14
4.30
-1.74
-8.90
-16.11
-22.58
-27.91
-32.01
-34.83
-36.35
-36.52
-35.39
-33.22
-30.58
-28.17
-26.57
-25.96
-25.98
-25.96
-25.29
-23.78
-21.77
-20.02
-19.24
-19.81
-21.63
-24.25
-27.14
-29.95
-32.56
-34.97
-37.16
-39.05
-40.49
-41.36
-41.55
-40.92
-39.19
-36.03
-31.15
-24.58
-16.61
-7.81
1.25
10.20
18.89
27.27
35.17
42.20
47.77
51.36
52.79
52.32
50.60
48.39
46.25
44.40
42.70
40.84
38.57
35.82
32.74
29.57
26.52
23.58
20.64
17.50
14.06
10.32
6.38
2.34
-1.79
-6.06
-10.37
-14.41
-17.58
-19.09
-18.27
-14.80
-8.89
-1.25
7.14
15.28
22.48
28.36
32.89
36.24
38.65
40.26
41.22
41.63
41.57
41.13
40.37
39.35
38.03
36.37
34.25
31.51
28.08
23.96
19.31
14.46
9.84
5.83
2.65
0.23
-1.73
-3.64
-5.84
-8.52
-11.63
-15.07
-18.69
-22.41
-26.02
-29.17
-31.34
-31.92
-30.48
-27.00
-21.86
-15.79
-9.54
-3.70
1.48
5.96
9.84
13.13
15.75
17.58
18.50
18.59
18.05
17.22
16.46
15.96
15.78
15.77
15.71
15.45
15.03
14.69
14.74
15.33
16.37
17.44
17.87
16.97
14.20
9.23
2.00
-7.33
-18.37
-30.49
-42.87
-54.53
-64.46
-71.72
-75.65
-75.93
-72.67
-66.32
-57.58
-47.21
-35.92
-24.35
-13.04
-2.47
6.95
14.98
21.62
27.16
32.09
36.83
41.66
46.48
50.97
54.69
57.21
58.24
57.72
55.79
52.74
48.92
44.59
39.87
34.74
29.18
23.21
16.97
10.67
4.48
-1.57
-7.56
-13.66
-19.96
-26.37
-32.55
-38.01
-42.16
-44.45
-44.48
-42.10
-37.49
-31.10
-23.68
-16.04
-8.92
-2.84
2.00
5.72
8.56
10.80
12.57
13.78
14.27
13.84
12.39
10.02
6.92
3.35
-0.44
-4.29
-8.10
-11.86
-15.56
-19.26
-23.04
-26.90
-30.73
-34.31
-37.28
-39.37
-40.48
-40.71
-40.34
-39.68
-38.95
-38.20
-37.32
-36.04
-34.04
-30.96
-26.55
-20.66
-13.32
-4.74
4.72
14.67
24.70
34.45
43.52
51.45
57.77
62.02
63.95
63.55
61.08
57.01
51.87
46.17
40.33
34.74
29.75
25.71
22.83
21.02
19.76
18.15
15.13
9.97
2.60
-6.21
-15.11
-22.67
-28.05
-31.38
-33.73
-36.61
-41.19
-47.72
-55.30
-62.23
-66.60
-67.03
-62.93
-54.51
-42.70
-29.20
-16.67
-8.49
-7.80
-15.95
-31.22
-48.85
-62.73
-68.03
-63.47
-51.90
-38.70
-29.13
-25.95
-28.69
-34.58
-40.49
-44.41
-45.87
-45.42
-43.74
-41.12
-37.56
-33.07
-27.93
-22.74
-18.16
-14.71
-12.57
-11.65
-11.68
-12.35
-13.36
-14.42
-15.08
-14.85
-13.23
-9.85
-4.55
2.62
11.48
21.74
32.98
44.60
55.84
65.92
74.22
80.51
84.97
88.03
90.17
91.60
92.27
91.86
90.13
87.03
82.86
78.24
73.91
70.48
68.16
66.61
64.97
62.11
56.95
48.84
37.74
24.27
9.48
-5.46
-19.53
-32.13
-43.15
-52.91
-61.97
-70.88
-79.87
-88.70
-96.67
-102.77
-105.96
-105.51
-101.26
-93.69
-83.75
-72.63
-61.34
-50.61
-40.79
-32.03
-24.42
-18.02
-12.90
-9.04
-6.22
-4.10
-2.31
-0.63
1.01
2.64
4.34
6.32
8.85
12.03
15.67
19.27
22.23
24.05
24.65
24.26
23.31
22.17
20.98
19.68
18.18
16.46
14.70
13.23
12.40
12.47
13.50
15.33
17.65
20.00
21.91
22.91
22.68
21.13
18.51
15.36
12.45
10.54
10.13
11.36
13.93
17.30
20.90
24.36
27.55
30.52
33.41
36.23
38.95
41.48
43.81
46.03
48.38
51.09
54.37
58.21
62.35
66.33
69.57
71.60
72.18
71.32
69.22
66.13
62.27
57.77
52.70
47.10
40.95
34.28
27.14
19.76
12.55
6.06
0.87
-2.58
-4.10
-3.87
-2.31
0.05
2.67
5.14
7.17
8.58
9.32
9.44
9.06
8.31
7.31
6.11
4.71
3.15
1.47
-0.20
-1.71
-2.90
-3.69
-4.09
-4.22
-4.28
-4.43
-4.83
-5.59
-6.82
-8.56
-10.83
-13.49
-16.32
-19.05
-21.56
-23.95
-26.45
-29.18
-31.95
-34.18
-35.07
-33.93
-30.53
-25.25
-18.91
-12.52
-6.88
-2.40
0.88
3.13
4.60
5.49
5.84
5.59
4.62
2.80
0.09
-3.40
-7.35
-11.32
-14.82
-17.46
-18.99
-19.43
-18.92
-17.68
-15.97
-14.08
-12.31
-10.96
-10.26
-10.30
-10.98
-12.09
-13.39
-14.74
-16.10
-17.43
-18.58
-19.20
-18.83
-17.11
-13.94
-9.54
-4.45
0.71
5.40
9.21
11.81
12.92
12.27
9.71
5.42
-0.09
-6.16
-12.16
-17.80
-23.09
-28.26
-33.50
-38.79
-43.96
-48.78
-53.06
-56.75
-59.88
-62.54
-64.87
-67.10
-69.55
-72.44
-75.83
-79.49
-83.03
-86.09
-88.53
-90.46
-92.14
-93.71
-94.98
-95.42
-94.28
-90.99
-85.33
-77.57
-68.31
-58.29
-48.22
-38.80
-30.72
-24.56
-20.69
-19.02
-18.94
-19.48
-19.68
-18.99
-17.38
-15.25
-12.99
-10.81
-8.65
-6.37
-4.06
-2.04
-0.75
-0.47
-1.22
-2.65
-4.24
-5.52
-6.29
-6.74
-7.31
-8.49
-10.45
-13.00
-15.47
-17.04
-16.97
-14.85
-10.64
-4.63
2.72
10.97
19.71
28.52
36.96
44.53
50.80
55.46
58.41
59.77
59.76
58.63
56.63
54.00
50.95
47.66
44.27
40.73
36.93
32.64
27.74
22.28
16.53
10.89
5.70
1.16
-2.80
-6.47
-10.20
-14.23
-18.52
-22.63
-25.82
-27.31
-26.48
-23.14
-17.57
-10.44
-2.52
5.49
13.17
20.40
27.17
33.52
39.34
44.44
48.65
51.85
53.92
54.73
54.11
52.10
49.21
46.56
45.66
47.84
53.59
62.26
72.26
81.75
89.31
94.36
96.92
97.18
95.14
90.58
83.25
73.26
61.16
47.82
34.26
21.49
10.33
1.34
-5.43
-10.44
-14.63
-19.00
-24.05
-29.36
-33.62
-35.07
-32.31
-24.97
-13.99
-1.42
10.24
18.68
22.43
21.03
14.98
5.48
-5.97
-17.89
-29.09
-38.78
-46.67
-52.86
-57.75
-61.88
-65.78
-69.81
-74.05
-78.21
-81.71
-83.78
-83.75
-81.24
-76.37
-69.58
-61.52
-52.82
-43.92
-35.06
-26.46
-18.35
-11.01
-4.73
0.35
4.25
7.13
9.14
10.38
10.87
10.66
9.94
9.07
8.44
8.31
8.68
9.31
9.79
9.76
9.05
7.76
6.17
4.52
3.00
1.66
0.45
-0.74
-2.03
-3.59
-5.55
-7.86
-10.27
-12.30
-13.33
-12.80
-10.36
-5.87
0.58
8.78
18.35
28.73
39.13
48.60
56.34
61.95
65.57
67.72
68.99
69.68
69.69
68.62
66.19
62.48
58.04
53.61
49.79
46.72
44.00
41.04
37.39
32.94
27.99
22.96
18.06
13.19
7.93
1.87
-5.16
-12.93
-20.92
-28.54
-35.32
-40.93
-45.06
-47.32
-47.17
-44.06
-37.76
-28.55
-17.31
-5.29
6.22
16.33
24.73
31.69
37.81
43.76
50.00
56.75
63.88
71.04
77.82
83.88
89.08
93.49
97.29
100.59
103.26
104.86
104.82
102.72
98.55
92.78
86.12
79.18
72.27
65.41
58.51
51.58
44.83
38.45
32.45
26.51
20.10
12.66
3.93
-5.87
-16.15
-26.15
-35.22
-42.98
-49.43
-54.79
-59.44
-63.62
-67.37
-70.48
-72.74
-74.12
-74.94
-75.86
-77.66
-80.88
-85.61
-91.42
-97.60
-103.38
-107.96
-110.39
-109.54
-104.29
-94.04
-79.27
-61.67
-43.78
-28.09
-16.21
-8.41
-3.88
-1.49
-0.60
-1.34
-4.18
-9.18
-15.45
-21.37
-25.47
-27.30
-27.87
-29.02
-32.35
-38.21
-45.43
-52.04
-56.41
-58.11
-58.05
-57.74
-58.25
-59.63
-60.97
-61.05
-59.08
-55.04
-49.52
-43.19
-36.34
-28.85
-20.44
-11.03
-1.06
8.69
17.34
24.36
29.77
34.01
37.65
40.98
43.94
46.14
47.16
46.80
45.17
42.60
39.54
36.29
32.84
28.88
23.95
17.72
10.29
2.27
-5.47
-12.24
-17.77
-22.22
-25.79
-28.38
-29.54
-28.67
-25.46
-20.25
-13.92
-7.51
-1.82
2.85
6.67
9.95
12.87
15.45
17.56
19.09
20.07
20.62
20.93
21.24
21.80
22.76
24.18
25.89
27.53
28.64
28.76
27.59
25.05
21.22
16.28
10.44
3.84
-3.38
-11.08
-19.05
-27.09
-34.95
-42.39
-49.14
-54.96
-59.53
-62.51
-63.60
-62.60
-59.50
-54.64
-48.56
-41.93
-35.29
-28.98
-22.95
-17.03
-11.04
-5.02
0.73
5.82
9.99
13.26
15.99
18.65
21.63
25.05
28.70
32.11
34.79
36.31
36.52
35.48
33.43
30.69
27.56
24.28
20.95
17.53
13.87
9.75
5.01
-0.45
-6.54
-12.93
-19.06
-24.20
-27.69
-29.10
-28.34
-25.79
-22.13
-18.13
-14.45
-11.46
-9.27
-7.73
-6.59
-5.66
-4.86
-4.21
-3.83
-3.77
-4.04
-4.43
-4.68
-4.48
-3.65
-2.19
-0.27
1.88
4.11
6.37
8.71
11.12
13.41
15.17
15.88
15.09
12.58
8.41
2.91
-3.40
-9.95
-16.19
-21.62
-25.80
-28.31
-28.78
-26.99
-22.94
-17.00
-9.84
-2.32
4.73
10.75
15.57
19.25
22.00
23.91
24.96
25.05
24.17
22.49
20.41
18.35
16.65
15.40
14.46
13.61
12.63
11.48
10.36
9.61
9.56
10.33
11.75
13.33
14.51
14.80
13.96
12.08
9.49
6.60
3.84
1.54
-0.08
-0.89
-0.80
0.23
2.11
4.72
7.80
11.10
14.30
17.15
19.44
21.08
22.08
22.53
22.54
22.21
21.63
20.90
20.09
19.27
18.49
17.72
16.90
15.95
14.84
13.56
12.10
10.49
8.70
6.66
4.29
1.45
-1.97
-6.11
-10.95
-16.32
-21.77
-26.61
-30.10
-31.62
-30.93
-28.22
-24.04
-19.04
-13.78
-8.54
-3.46
1.38
5.80
9.55
12.41
14.35
15.56
16.36
17.08
17.89
18.82
19.77
20.66
21.46
22.17
22.77
23.21
23.35
23.07
22.30
21.03
19.31
17.16
14.64
11.82
8.86
6.00
3.57
1.95
1.48
2.42
4.87
8.69
13.55
18.94
24.28
29.04
32.91
35.76
37.68
38.81
39.21
38.84
37.56
35.27
32.00
27.96
23.44
18.66
13.73
8.58
3.13
-2.60
-8.38
-13.83
-18.56
-22.32
-25.09
-27.05
-28.49
-29.63
-30.62
-31.50
-32.30
-33.04
-33.70
-34.13
-34.02
-33.00
-30.73
-27.09
-22.29
-16.75
-10.95
-5.30
0.01
4.96
9.60
14.00
18.13
21.93
25.23
27.89
29.83
31.05
31.64
31.73
31.44
30.81
29.77
28.25
26.25
23.92
21.52
19.29
17.38
15.72
14.14
12.41
10.41
8.16
5.78
3.44
1.22
-0.90
-3.04
-5.34
-7.78
-10.25
-12.51
-14.40
-15.84
-16.87
-17.55
-17.90
-17.85
-17.26
-16.06
-14.28
-12.06
-9.60
-7.10
-4.77
-2.83
-1.50
-0.98
-1.28
-2.20
-3.38
-4.50
-5.41
-6.18
-7.06
-8.21
-9.56
-10.81
-11.58
-11.65
-11.19
-10.70
-10.79
-11.98
-14.41
-17.83
-21.81
-25.86
-29.66
-32.92
-35.27
-36.25
-35.49
-33.08
-29.75
-26.63
-24.70
-24.21
-24.47
-24.17
-22.08
-17.73
-11.65
-5.01
0.93
5.44
8.46
10.48
12.16
14.04
16.36
19.19
22.42
25.88
29.39
32.75
35.77
38.14
39.47
39.36
37.46
33.74
28.42
21.95
14.81
7.32
-0.40
-8.40
-16.74
-25.26
-33.53
-40.80
-46.16
-48.83
-48.40
-45.05
-39.55
-33.02
-26.65
-21.35
-17.55
-15.22
-13.96
-13.21
-12.53
-11.64
-10.54
-9.37
-8.35
-7.63
-7.23
-7.07
-7.01
-6.89
-6.62
-6.15
-5.42
-4.42
-3.22
-2.00
-1.07
-0.73
-1.16
-2.33
-3.99
-5.93
-7.99
-10.30
-13.08
-16.57
-20.76
-25.30
-29.51
-32.63
-34.01
-33.37
-30.89
-27.03
-22.48
-17.86
-13.60
-9.88
-6.65
-3.84
-1.35
0.81
2.61
4.03
5.19
6.26
7.36
8.52
9.57
10.27
10.43
10.05
9.33
8.58
8.03
7.67
7.34
6.77
5.82
4.50
3.02
1.58
0.24
-1.13
-2.83
-5.14
-8.15
-11.61
-14.91
-17.28
-17.99
-16.68
-13.39
-8.54
-2.66
3.83
10.79
18.31
26.48
35.28
44.42
53.56
62.45
71.08
79.45
87.41
94.50
100.03
103.45
104.64
103.91
101.70
98.11
92.63
84.33
72.40
56.84
38.67
19.70
1.80
-13.78
-26.72
-37.51
-46.88
-55.27
-62.56
-68.27
-72.00
-73.96
-74.98
-76.29
-78.86
-82.91
-87.80
-92.42
-95.76
-97.50
-97.92
-97.43
-95.85
-92.13
-84.72
-72.50
-55.68
-36.01
-16.13
1.53
15.80
26.95
36.24
44.91
53.56
61.92
69.34
75.30
79.51
81.67
81.09
76.71
67.62
53.90
36.93
19.15
3.21
-9.01
-16.74
-20.32
-20.69
-18.98
-16.32
-13.90
-12.85
-14.07
-17.74
-23.06
-28.44
-31.97
-32.11
-28.16
-20.33
-9.44
3.41
17.17
31.00
44.29
56.56
67.51
76.85
84.42
90.10
93.88
95.79
95.97
94.60
91.92
88.21
83.78
79.04
74.39
70.16
66.55
63.54
60.95
58.52
56.00
53.28
50.33
47.12
43.57
39.48
34.60
28.79
22.09
14.77
7.30
0.27
-5.67
-9.92
-12.01
-11.76
-9.36
-5.44
-0.90
3.33
6.58
8.58
9.50
9.83
10.04
10.44
11.01
11.43
11.31
10.30
8.43
6.08
3.89
2.43
1.91
2.08
2.35
2.11
1.03
-0.78
-2.92
-5.00
-6.87
-8.73
-10.95
-13.80
-17.24
-20.90
-24.29
-27.01
-29.01
-30.55
-31.94
-33.26
-34.09
-33.56
-30.70
-24.92
-16.35
-5.79
5.68
17.14
28.19
38.82
49.02
58.34
65.78
70.06
70.24
66.16
58.62
49.00
38.75
28.90
19.90
11.79
4.46
-2.14
-7.92
-12.77
-16.64
-19.55
-21.67
-23.20
-24.43
-25.62
-27.04
-28.88
-31.24
-34.15
-37.61
-41.54
-45.78
-50.07
-54.11
-57.80
-61.31
-65.03
-69.27
-73.94
-78.42
-81.73
-83.03
-82.11
-79.54
-76.29
-73.26
-70.87
-68.98
-67.25
-65.52
-63.98
-62.99
-62.74
-62.91
-62.77
-61.50
-58.72
-54.73
-50.44
-46.90
-44.81
-44.17
-44.41
-44.65
-44.07
-42.18
-38.82
-34.15
-28.39
-21.86
-14.86
-7.65
-0.28
7.19
14.67
21.80
28.09
33.13
36.88
39.60
41.60
42.83
42.77
40.87
37.00
31.70
25.94
20.48
15.19
9.06
0.87
-10.10
-23.58
-38.40
-52.96
-65.53
-74.50
-78.41
-76.21
-67.77
-54.30
-38.34
-23.09
-11.35
-4.60
-2.69
-4.28
-7.55
-10.96
-13.42
-14.21
-12.86
-9.14
-3.38
3.48
10.03
14.92
17.31
17.36
16.08
14.80
14.47
15.21
16.37
17.07
16.82
15.95
15.59
17.19
21.79
29.44
39.05
48.80
56.81
61.89
63.92
63.71
62.42
60.89
59.30
57.28
54.40
50.63
46.50
42.82
40.14
38.34
36.65
33.91
29.11
21.77
12.05
0.60
-11.74
-24.24
-36.46
-48.31
-59.86
-71.06
-81.51
-90.34
-96.40
-98.63
-96.56
-90.40
-81.04
-69.69
-57.54
-45.43
-33.83
-22.95
-12.84
-3.60
4.65
11.73
17.43
21.64
24.34
25.71
26.11
26.02
25.94
26.17
26.87
27.90
29.04
30.04
30.73
31.09
31.20
31.21
31.20
31.18
31.05
30.68
29.94
28.69
26.81
24.11
20.40
15.64
10.14
4.67
0.28
-2.01
-1.60
1.38
6.22
11.85
17.31
22.02
25.86
29.01
31.64
33.76
35.18
35.66
35.11
33.65
31.61
29.30
26.93
24.56
22.12
19.55
16.76
13.81
10.77
7.77
5.00
2.66
0.95
-0.13
-0.77
-1.39
-2.45
-4.28
-6.88
-10.04
-13.50
-17.17
-21.15
-25.54
-30.18
-34.50
-37.72
-39.12
-38.35
-35.61
-31.58
-27.07
-22.86
-19.38
-16.81
-15.04
-13.90
-13.27
-13.14
-13.62
-14.84
-16.85
-19.52
-22.53
-25.49
-28.05
-30.05
-31.44
-32.24
-32.42
-31.90
-30.71
-29.01
-27.12
-25.47
-24.47
-24.45
-25.67
-28.36
-32.73
-38.88
-46.73
-55.91
-65.80
-75.61
-84.53
-91.89
-97.26
-100.39
-101.35
-100.37
-97.77
-93.89
-88.96
-83.07
-76.36
-68.93
-61.05
-53.09
-45.38
-38.20
-31.61
-25.47
-19.52
-13.46
-7.07
-0.28
6.76
13.78
20.52
26.75
32.46
37.77
42.87
47.86
52.69
57.12
60.84
63.52
64.90
64.90
63.56
61.08
57.85
54.40
51.35
49.28
48.56
49.21
50.85
52.83
54.45
55.14
54.72
53.38
51.56
49.76
48.27
47.08
45.94
44.57
42.81
40.73
38.55
36.49
34.64
32.91
31.10
28.99
26.55
23.86
21.09
18.39
15.80
13.27
10.65
7.86
4.88
1.75
-1.49
-4.90
-8.50
-12.24
-15.78
-18.52
-19.80
-19.07
-16.25
-11.71
-6.13
-0.27
5.32
10.36
14.84
18.83
22.41
25.64
28.52
31.04
33.15
34.80
35.93
36.57
36.84
36.94
36.98
36.94
36.62
35.70
33.88
31.05
27.29
22.91
18.26
13.63
9.22
5.10
1.24
-2.40
-5.90
-9.38
-12.85
-16.22
-19.13
-21.07
-21.50
-20.08
-16.86
-12.28
-7.09
-2.03
2.31
5.63
7.94
9.35
10.09
10.37
10.38
10.24
10.07
9.90
9.78
9.75
9.85
10.13
10.60
11.15
11.59
11.73
11.38
10.39
8.62
5.80
1.58
-4.39
-12.25
-21.76
-32.32
-43.06
-53.24
-62.35
-70.19
-76.68
-81.63
-84.70
-85.51
-83.87
-80.02
-74.59
-68.43
-62.25
-56.47
-51.17
-46.26
-41.63
-37.31
-33.47
-30.33
-28.01
-26.51
-25.60
-24.92
-24.12
-22.89
-21.11
-18.89
-16.54
-14.48
-13.11
-12.66
-13.05
-14.04
-15.27
-16.59
-18.08
-20.01
-22.74
-26.42
-30.84
-35.42
-39.33
-41.73
-42.07
-40.10
-35.98
-30.13
-23.14
-15.65
-8.22
-1.24
5.15
11.10
16.86
22.76
28.96
35.46
42.20
49.11
56.21
63.61
71.40
79.52
87.69
95.43
102.15
107.32
110.56
111.76
111.02
108.63
104.96
100.36
95.02
89.01
82.25
74.54
65.67
55.35
43.29
29.32
13.63
-3.15
-19.87
-35.20
-47.92
-57.24
-62.97
-65.45
-65.27
-63.08
-59.33
-54.40
-48.69
-42.74
-37.09
-32.20
-28.38
-25.79
-24.34
-23.74
-23.54
-23.34
-22.76
-21.43
-19.02
-15.47
-10.98
-5.92
-0.68
4.36
8.65
11.68
13.41
14.17
14.29
13.61
11.48
7.04
-0.48
-11.71
-26.46
-43.19
-59.37
-72.53
-81.30
-85.31
-84.78
-79.95
-71.56
-60.40
-46.84
-30.74
-11.99
9.31
33.29
60.24
90.60
123.31
151.37
165.73
161.77
142.48
114.84
85.42
58.63
40.04
30.26
29.19
35.93
48.16
61.66
71.14
70.00
50.96
14.25
-31.41
-72.97
-100.59
-111.64
-109.86
-104.94
-99.98
-94.96
-87.18
-74.02
-54.60
-30.91
-5.62
16.34
31.32
39.56
44.35
50.46
60.15
71.59
79.91
80.86
73.58
61.51
50.39
44.03
42.63
42.82
40.27
32.67
21.13
8.85
-1.09
-7.44
-11.54
-15.75
-21.91
-30.59
-41.07
-52.14
-62.93
-72.98
-82.03
-89.87
-95.87
-99.12
-98.82
-94.83
-87.80
-79.11
-70.26
-62.36
-55.99
-51.01
-46.84
-42.70
-38.03
-32.57
-26.50
-20.15
-13.75
-7.29
-0.37
7.61
17.20
28.63
41.50
54.83
67.26
77.48
84.56
88.27
88.95
87.29
83.83
78.82
72.32
64.51
56.00
47.68
40.42
34.43
29.10
23.21
15.55
5.81
-5.20
-15.66
-23.54
-27.46
-27.26
-23.90
-18.97
-13.96
-9.73
-6.35
-3.33
0.01
4.13
9.07
14.41
19.41
23.08
24.45
22.58
16.84
7.14
-5.93
-21.01
-36.12
-48.89
-57.06
-59.00
-54.21
-43.74
-29.95
-15.86
-4.02
4.39
9.92
14.17
18.64
23.51
27.34
27.75
22.72
11.87
-3.23
-19.64
-34.31
-45.11
-51.29
-53.20
-51.74
-47.69
-41.52
-33.48
-23.86
-13.14
-2.01
8.85
18.99
28.30
36.91
44.91
52.18
58.28
62.73
65.34
66.41
66.71
67.06
68.09
69.92
72.24
74.49
76.15
76.85
76.55
75.46
73.97
72.53
71.46
70.78
70.19
69.11
66.99
63.53
58.85
53.38
47.61
41.86
36.18
30.50
24.70
18.80
12.96
7.44
2.36
-2.35
-6.95
-11.74
-16.88
-22.26
-27.62
-32.72
-37.57
-42.56
-48.26
-55.20
-63.56
-72.94
-82.51
-91.18
-97.99
-102.49
-104.85
-105.75
-106.17
-106.92
-108.48
-111.05
-114.74
-119.56
-125.17
-130.44
-133.33
-131.51
-123.44
-109.34
-91.25
-71.91
-53.10
-34.64
-14.75
8.27
34.35
61.12
84.86
102.43
112.75
116.99
117.31
115.43
111.80
105.94
97.46
86.74
74.85
62.91
51.41
39.99
27.90
14.63
0.28
-14.32
-28.03
-39.83
-49.07
-55.63
-59.78
-61.97
-62.67
-62.29
-61.25
-60.05
-59.23
-59.28
-60.49
-62.87
-66.20
-70.19
-74.57
-79.10
-83.52
-87.41
-90.20
-91.39
-90.72
-88.21
-84.19
-79.05
-73.18
-66.97
-60.80
-55.07
-50.05
-45.92
-42.66
-40.08
-37.78
-35.10
-31.27
-25.47
-17.31
-7.08
4.12
14.75
23.28
28.85
31.42
31.59
30.20
27.93
25.20
22.35
19.82
18.16
17.88
19.19
21.89
25.48
29.34
33.02
36.27
39.02
41.34
43.38
45.37
47.65
50.54
54.18
58.45
62.94
67.05
70.27
72.30
73.08
72.82
71.77
70.20
68.32
66.36
64.62
63.43
63.04
63.49
64.46
65.34
65.42
64.17
61.49
57.73
53.47
49.15
44.93
40.70
36.31
31.78
27.39
23.53
20.36
17.72
15.20
12.40
9.12
5.44
1.53
-2.38
-6.13
-9.62
-12.66
-15.04
-16.57
-17.23
-17.21
-16.85
-16.56
-16.64
-17.21
-18.15
-19.22
-20.11
-20.62
-20.75
-20.72
-20.76
-20.97
-21.08
-20.41
-18.08
-13.39
-6.23
2.89
12.88
22.50
30.65
36.59
39.90
40.33
37.72
32.11
23.78
13.43
2.04
-9.40
-20.17
-29.94
-38.65
-46.18
-52.15
-55.91
-56.84
-54.69
-49.81
-43.05
-35.37
-27.59
-20.13
-13.15
-6.70
-0.91
4.02
7.86
10.48
11.97
12.59
12.79
13.07
13.78
15.00
16.49
17.70
18.00
17.01
14.72
11.57
8.15
4.89
1.78
-1.51
-5.46
-10.36
-16.17
-22.61
-29.41
-36.49
-43.90
-51.57
-59.00
-65.16
-68.68
-68.41
-63.85
-55.47
-44.59
-32.89
-21.87
-12.43
-4.78
1.32
6.13
9.68
11.69
11.90
10.41
8.02
6.00
5.62
7.67
12.13
18.31
25.39
32.75
40.03
46.79
52.10
54.59
53.00
46.93
37.36
26.39
16.34
8.73
3.68
0.14
-3.41
-8.06
-14.05
-20.78
-27.33
-32.82
-36.73
-38.77
-38.79
-36.75
-32.71
-26.99
-20.16
-12.92
-5.92
0.42
6.01
11.08
16.00
21.15
26.72
32.75
39.18
45.95
53.02
60.35
67.80
75.11
81.94
87.99
93.07
97.04
99.77
101.02
100.60
98.46
94.79
89.99
84.45
78.33
71.57
63.91
55.17
45.42
35.07
24.78
15.28
7.23
1.11
-2.84
-4.70
-4.79
-3.66
-1.87
0.08
1.90
3.47
4.75
5.63
5.94
5.54
4.42
2.77
0.93
-0.71
-1.91
-2.58
-2.85
-2.87
-2.76
-2.54
-2.17
-1.63
-0.98
-0.32
0.12
0.16
-0.38
-1.56
-3.37
-5.73
-8.53
-11.59
-14.70
-17.54
-19.65
-20.56
-19.88
-17.54
-13.76
-9.08
-4.15
0.50
4.62
8.19
11.29
14.02
16.35
18.17
19.37
19.89
19.78
19.17
18.26
17.25
16.24
15.26
14.17
12.86
11.24
9.34
7.30
5.17
2.91
0.31
-2.90
-6.88
-11.59
-16.81
-22.20
-27.50
-32.58
-37.35
-41.60
-44.95
-46.81
-46.67
-44.32
-40.02
-34.44
-28.39
-22.53
-17.24
-12.59
-8.49
-4.83
-1.58
1.25
3.64
5.55
6.94
7.76
7.98
7.66
6.95
6.03
5.05
3.96
2.68
1.08
-0.83
-2.88
-4.87
-6.68
-8.36
-10.11
-12.20
-14.78
-17.87
-21.35
-25.06
-28.78
-32.33
-35.40
-37.58
-38.37
-37.34
-34.28
-29.38
-23.22
-16.61
-10.39
-5.06
-0.59
3.58
8.18
13.72
20.11
26.74
32.70
37.17
39.84
41.09
41.78
42.76
44.41
46.51
48.44
49.54
49.35
47.85
45.45
42.72
40.10
37.77
35.43
32.56
28.33
21.23
9.78
-6.68
-27.56
-51.24
-75.39
-97.82
-116.68
-130.84
-141.10
-148.90
-155.29
-160.28
-163.24
-163.26
-160.09
-153.66
-144.34
-134.54
-126.70
-121.86
-119.00
-116.04
-110.86
-102.97
-92.42
-79.73
-67.57
-58.59
-54.05
-53.59
-56.70
-62.99
-72.90
-85.21
-84.91
-61.56
-16.96
34.77
78.03
101.42
107.65
100.39
83.29
58.74
26.42
-14.26
-61.80
-111.09
-154.32
-182.87
-191.14
-177.24
-144.04
-99.60
-53.11
-11.03
24.45
53.76
77.98
96.43
108.15
113.18
112.58
109.21
107.05
109.38
117.16
128.90
141.28
151.72
159.37
164.27
166.90
167.59
166.39
163.14
157.96
151.23
143.82
136.63
129.97
123.56
116.85
109.47
101.43
93.03
84.51
75.97
67.33
58.43
49.34
40.55
33.04
27.97
26.21
27.86
32.04
37.08
41.04
42.31
39.93
33.86
24.81
14.03
3.06
-6.67
-14.26
-19.46
-22.84
-25.63
-29.11
-34.12
-40.65
-47.98
-55.17
-61.62
-67.21
-72.31
-77.68
-83.91
-91.20
-99.20
-107.13
-113.97
-118.74
-120.21
-117.45
-110.29
-99.04
-84.37
-66.95
-47.47
-26.88
-6.51
12.73
30.24
45.49
58.42
69.26
78.23
85.37
90.39
92.82
93.14
92.07
89.44
84.44
75.90
62.93
47.10
32.46
18.23
2.01
-16.37
-38.11
-63.81
-92.37
-120.91
-145.61
-163.49
-173.64
-176.48
-173.50
-166.70
-157.21
-144.98
-129.58
-111.13
-91.00
-71.81
-55.62
-43.38
-34.82
-28.28
-21.66
-13.49
-3.81
5.77
12.75
15.56
14.19
9.99
5.21
1.88
0.87
1.71
3.00
3.40
2.46
0.76
-0.78
-1.36
-0.70
0.80
2.21
2.48
0.81
-2.95
-8.29
-14.25
-19.61
-23.10
-23.75
-21.26
-15.90
-8.35
0.54
10.07
19.70
29.04
38.15
47.14
55.81
63.87
71.14
77.61
83.51
88.60
91.92
92.99
91.41
86.95
79.84
71.00
61.45
52.40
44.09
36.04
29.13
24.62
23.13
24.13
26.25
27.54
27.35
25.83
23.85
24.54
30.61
42.66
59.09
77.45
95.21
111.83
126.97
128.91
110.32
73.54
29.99
-8.23
-30.21
-38.44
-36.27
-27.00
-13.45
1.83
17.10
30.56
40.35
45.19
44.38
39.27
31.58
22.54
13.97
6.31
-4.23
-19.92
-39.94
-61.16
-79.42
-92.38
-99.88
-102.55
-104.11
-105.99
-109.01
-113.81
-120.90
-129.87
-140.11
-151.12
-158.66
-160.23
-154.68
-142.71
-126.69
-109.84
-94.82
-83.11
-74.82
-68.64
-63.15
-56.61
-47.65
-35.60
-20.56
-3.10
15.84
35.22
54.06
71.20
85.96
97.98
107.09
113.17
116.03
115.25
110.32
100.90
86.97
69.56
50.51
32.06
16.08
3.52
-5.69
-12.33
-17.23
-20.98
-23.53
-24.56
-23.77
-21.18
-17.20
-12.52
-7.86
-3.80
-0.68
1.48
2.92
4.02
5.14
6.49
8.03
9.64
11.26
13.03
15.24
18.08
21.34
24.28
25.90
25.36
22.48
17.87
12.62
7.70
3.40
-0.69
-5.29
-10.84
-17.19
-23.70
-29.70
-34.91
-39.42
-43.35
-46.44
-48.08
-47.55
-44.52
-39.30
-32.74
-25.69
-18.69
-11.78
-4.70
2.82
10.86
19.31
28.02
36.89
45.86
54.77
63.29
70.92
77.08
81.25
83.12
82.68
80.15
76.08
71.20
66.36
62.28
59.42
57.74
56.76
55.67
53.61
49.95
44.50
37.56
29.76
21.83
14.47
8.23
3.51
0.60
-0.42
0.30
2.30
4.89
7.28
8.89
9.46
9.09
8.05
6.62
4.86
2.75
0.21
-2.64
-5.48
-7.90
-9.65
-10.81
-11.83
-13.32
-15.68
-18.90
-22.48
-25.78
-28.25
-29.64
-30.04
-29.63
-28.59
-27.03
-24.97
-22.47
-19.57
-16.23
-12.27
-7.39
-1.35
5.87
13.98
22.44
30.63
37.92
43.81
47.86
49.90
49.97
48.48
46.01
43.19
40.40
37.76
35.09
32.14
28.69
24.58
19.71
14.00
7.53
0.63
-6.07
-11.66
-15.29
-16.38
-14.92
-11.47
-7.01
-2.62
0.83
2.88
3.47
2.79
1.03
-1.66
-5.20
-9.45
-14.02
-18.36
-21.80
-23.86
-24.34
-23.41
-21.40
-18.62
-15.27
-11.42
-7.12
-2.45
2.38
7.18
11.70
15.80
19.35
22.31
24.66
26.43
27.66
28.29
28.24
27.36
25.52
22.70
19.08
15.08
11.28
8.28
6.51
6.02
6.37
6.83
6.60
5.13
2.40
-1.11
-4.69
-7.70
-9.85
-11.27
-12.29
-13.14
-13.78
-13.94
-13.34
-11.98
-10.14
-8.39
-7.21
-6.88
-7.37
-8.56
-10.40
-13.01
-16.59
-21.20
-26.65
-32.49
-38.27
-43.85
-49.36
-55.06
-60.81
-65.97
-69.42
-70.17
-67.90
-63.23
-57.46
-52.02
-47.82
-45.00
-43.19
-41.88
-40.86
-40.25
-40.36
-41.39
-43.23
-45.39
-47.03
-47.15
-44.86
-39.77
-32.20
-23.23
-14.35
-6.96
-1.98
0.44
0.68
-0.63
-3.03
-6.30
-10.37
-15.03
-19.78
-23.91
-26.78
-28.08
-27.99
-27.19
-26.58
-27.01
-28.80
-31.65
-34.67
-36.81
-37.25
-35.73
-32.58
-28.41
-23.90
-19.48
-15.26
-11.13
-6.81
-2.10
3.06
8.51
13.86
18.67
22.58
25.49
27.68
29.54
31.28
32.77
33.56
33.24
31.80
29.67
27.48
25.68
24.27
22.99
21.65
20.37
19.61
19.87
21.34
23.80
26.71
29.45
31.43
32.17
31.26
28.37
23.49
17.02
9.82
2.94
-2.72
-6.63
-8.71
-9.19
-8.48
-7.01
-5.28
-3.72
-2.67
-2.24
-2.29
-2.53
-2.69
-2.66
-2.58
-2.66
-3.04
-3.63
-4.11
-4.12
-3.40
-2.00
-0.16
1.73
3.40
4.66
5.44
5.65
5.13
3.69
1.23
-2.12
-6.02
-9.88
-13.06
-15.06
-15.66
-15.05
-13.69
-12.19
-11.05
-10.39
-9.94
-9.10
-7.28
-4.18
0.06
4.91
9.71
13.95
17.40
20.02
21.87
22.94
23.12
22.28
20.40
17.66
14.40
11.01
7.84
5.02
2.49
0.01
-2.64
-5.61
-8.86
-12.19
-15.27
-17.78
-19.46
-20.02
-19.22
-16.79
-12.60
-6.71
0.48
8.29
15.95
22.79
28.41
32.71
35.82
37.87
38.90
38.84
37.60
35.20
31.89
28.04
24.07
20.30
16.83
13.59
10.40
7.08
3.56
-0.15
-3.98
-7.86
-11.75
-15.70
-19.83
-24.33
-29.47
-35.41
-42.03
-48.73
-54.47
-58.00
-58.28
-54.95
-48.43
-39.73
-30.07
-20.37
-11.08
-2.23
6.31
14.61
22.49
29.65
35.80
40.76
44.49
47.02
48.36
48.44
47.19
44.58
40.78
36.11
31.04
26.02
21.38
17.21
13.36
9.61
5.74
1.65
-2.63
-7.02
-11.47
-16.04
-20.79
-25.74
-30.70
-35.25
-38.84
-40.96
-41.28
-39.83
-36.85
-32.73
-27.82
-22.31
-16.25
-9.69
-2.69
4.55
11.74
18.57
24.84
30.44
35.39
39.84
43.95
47.90
51.79
55.67
59.47
63.05
66.22
68.78
70.59
71.64
71.99
71.78
71.17
70.40
69.66
69.00
68.25
67.02
64.81
61.32
56.66
51.54
47.06
44.17
43.12
43.05
42.21
38.77
31.62
20.94
8.08
-4.96
-16.28
-24.58
-29.40
-31.10
-30.61
-29.26
-28.50
-29.44
-32.52
-37.27
-42.59
-47.25
-50.54
-52.67
-54.43
-56.66
-59.64
-62.83
-65.17
-65.62
-63.67
-59.64
-54.56
-49.75
-46.24
-44.40
-43.87
-43.77
-43.26
-42.03
-40.37
-38.95
-38.16
-37.73
-36.67
-33.75
-28.23
-20.33
-11.26
-2.62
4.24
8.89
11.83
14.12
16.71
19.92
23.27
25.83
26.68
25.41
22.26
17.99
13.38
9.04
5.13
1.60
-1.62
-4.44
-6.58
-7.84
-8.25
-8.08
-7.76
-7.66
-7.92
-8.33
-8.41
-7.54
-5.16
-1.06
4.51
10.89
17.19
22.56
26.48
28.85
29.88
30.01
29.63
29.00
28.24
27.27
25.88
23.68
20.27
15.30
8.71
0.82
-7.75
-16.28
-24.18
-31.19
-37.37
-42.97
-48.22
-53.17
-57.76
-61.84
-65.34
-68.23
-70.58
-72.50
-74.11
-75.45
-76.32
-76.22
-74.24
-69.26
-60.32
-47.01
-29.83
-10.19
9.88
28.20
42.93
52.89
57.69
57.70
53.87
47.44
39.56
31.02
22.17
13.21
4.51
-3.18
-8.93
-11.94
-12.05
-9.72
-5.78
-0.90
4.73
11.35
19.18
28.12
37.58
46.69
54.66
61.03
65.69
68.75
70.36
70.64
69.71
67.72
64.78
60.98
56.34
50.86
44.57
37.61
30.27
22.96
16.28
11.00
8.00
8.02
11.42
17.92
26.59
36.07
44.89
51.94
56.64
59.12
59.98
60.09
60.28
61.20
63.19
66.23
69.97
73.76
76.79
78.27
77.72
75.11
70.88
65.62
59.82
53.57
46.60
38.39
28.51
16.79
3.36
-11.45
-27.32
-43.92
-60.80
-77.26
-92.18
-104.28
-112.45
-116.19
-115.95
-113.05
-109.26
-106.09
-104.25
-103.48
-103.00
-102.15
-100.89
-99.76
-99.41
-99.93
-100.52
-99.86
-96.75
-90.86
-82.81
-73.70
-64.49
-55.77
-48.05
-42.28
-40.04
-42.89
-51.27
-63.71
-76.86
-86.77
-90.39
-86.81
-77.20
-63.80
-48.67
-32.88
-16.72
-0.35
15.51
29.51
40.26
47.11
50.50
51.79
52.66
54.30
57.06
60.53
63.89
66.39
67.61
67.53
66.34
64.26
61.38
57.70
53.18
47.85
41.88
35.59
29.30
23.22
17.43
11.84
6.29
0.67
-5.02
-10.62
-15.87
-20.54
-24.46
-27.61
-30.11
-32.19
-34.10
-36.06
-38.15
-40.24
-42.01
-43.03
-42.91
-41.47
-38.80
-35.24
-31.26
-27.26
-23.48
-19.96
-16.59
-13.25
-9.90
-6.69
-3.87
-1.80
-0.82
-1.14
-2.91
-6.15
-10.81
-16.76
-23.67
-31.01
-37.94
-43.50
-46.83
-47.40
-45.18
-40.62
-34.37
-27.13
-19.47
-11.84
-4.67
1.63
6.74
10.56
13.23
15.18
16.94
19.12
22.30
27.06
33.79
42.53
52.75
63.34
72.82
79.87
83.66
84.11
81.69
77.02
70.64
62.85
53.96
44.39
34.79
25.90
18.27
12.16
7.49
4.01
1.50
-0.13
-0.89
-0.81
-0.06
1.02
1.96
2.27
1.57
-0.37
-3.64
-8.07
-13.32
-18.77
-23.65
-27.10
-28.50
-27.57
-24.53
-20.04
-14.90
-9.94
-5.81
-3.04
-1.93
-2.58
-4.85
-8.19
-11.76
-14.66
-16.09
-15.68
-13.55
-10.17
-6.15
-2.04
1.78
5.08
7.77
9.93
11.91
14.26
17.62
22.43
28.67
35.84
43.12
49.81
55.59
60.71
65.77
71.39
77.88
85.12
92.74
100.28
107.30
113.47
118.50
122.24
124.73
126.26
127.28
128.02
128.17
126.57
121.41
110.72
93.19
68.81
39.14
6.94
-24.41
-51.79
-73.02
-87.20
-94.80
-97.35
-96.91
-95.52
-94.66
-95.09
-96.79
-99.34
-102.09
-104.61
-106.65
-108.19
-109.37
-110.35
-111.33
-112.49
-113.88
-115.40
-116.68
-117.26
-116.67
-114.69
-111.26
-106.48
-100.43
-93.18
-84.79
-75.46
-65.51
-55.38
-45.62
-36.72
-29.01
-22.62
-17.41
-13.10
-9.30
-5.65
-1.98
1.63
4.95
7.65
9.58
10.81
11.60
12.26
12.97
13.67
14.23
14.58
14.82
15.18
15.81
16.55
16.92
16.28
14.23
10.83
6.75
3.03
0.69
0.33
2.03
5.32
9.49
13.85
17.94
21.53
24.64
27.34
29.66
31.54
32.83
33.42
33.30
32.60
31.59
30.49
29.43
28.37
27.13
25.49
23.28
20.50
17.26
13.75
10.19
6.72
3.32
-0.28
-4.55
-10.16
-17.70
-27.48
-39.34
-52.56
-65.95
-78.19
-88.08
-94.83
-98.13
-98.16
-95.39
-90.43
-83.90
-76.39
-68.56
-61.09
-54.72
-50.13
-47.63
-47.01
-47.48
-47.89
-47.23
-45.14
-42.18
-39.69
-39.19
-41.57
-46.56
-52.70
-57.81
-59.67
-56.54
-47.43
-32.27
-12.07
11.09
34.15
53.85
67.74
75.23
77.83
78.45
79.96
83.69
88.76
92.63
92.52
86.94
76.45
63.28
50.05
38.33
27.96
17.32
4.49
-11.42
-29.68
-48.26
-64.93
-78.46
-89.14
-98.34
-107.46
-116.96
-125.99
-132.91
-136.05
-134.35
-127.44
-115.34
-98.06
-75.67
-48.52
-17.65
15.13
47.61
77.76
104.15
126.15
143.67
156.82
165.70
170.50
171.81
170.78
168.98
167.88
168.38
170.39
172.93
174.56
173.95
170.48
164.40
156.80
149.12
142.49
137.14
132.02
125.02
113.75
96.54
73.27
45.61
16.47
-10.91
-33.77
-50.36
-59.93
-62.63
-59.36
-51.77
-42.02
-32.33
-24.33
-18.47
-13.96
-9.34
-3.33
4.49
13.63
23.21
32.58
41.74
51.18
61.41
72.48
83.94
95.15
105.62
115.11
123.42
130.01
133.96
134.39
131.09
124.98
117.84
111.43
106.52
102.39
97.39
89.96
79.72
67.66
55.52
44.62
35.12
26.15
16.72
6.57
-3.39
-11.79
-17.76
-21.76
-25.50
-31.04
-39.78
-51.67
-65.31
-78.74
-90.29
-99.12
-105.23
-109.08
-111.08
-111.46
-110.30
-107.84
-104.57
-101.22
-98.47
-96.71
-95.86
-95.52
-95.15
-94.35
-92.93
-90.83
-88.07
-84.63
-80.47
-75.72
-70.69
-65.84
-61.71
-58.63
-56.71
-55.77
-55.46
-55.42
-55.32
-54.90
-53.96
-52.43
-50.36
-48.04
-45.93
-44.64
-44.74
-46.49
-49.78
-54.01
-58.25
-61.42
-62.63
-61.38
-57.71
-52.11
-45.37
-38.32
-31.64
-25.72
-20.62
-16.17
-12.09
-8.09
-3.99
0.33
4.91
9.87
15.32
21.40
28.09
35.16
42.17
48.58
53.99
58.29
61.69
64.55
67.13
69.40
71.01
71.44
70.27
67.51
63.67
59.63
56.29
54.31
53.89
54.93
57.25
60.70
65.18
70.26
75.08
78.60
80.21
80.36
80.55
82.67
87.78
95.19
102.50
106.70
105.69
99.48
89.99
79.96
71.29
64.17
57.21
48.59
37.26
23.53
8.77
-5.52
-18.52
-30.32
-41.63
-53.09
-64.80
-76.19
-86.44
-94.93
-101.66
-107.21
-112.49
-118.32
-124.93
-131.76
-137.63
-141.04
-140.77
-136.35
-128.22
-117.66
-106.32
-95.69
-86.74
-79.77
-74.47
-70.17
-66.02
-61.23
-55.13
-47.35
-37.93
-27.35
-16.40
-5.89
3.61
11.93
19.26
25.81
31.53
35.94
38.37
38.34
35.99
32.20
28.22
25.07
23.05
21.55
19.51
16.06
11.09
5.40
0.25
-3.18
-4.28
-3.16
-0.34
3.56
8.09
12.94
17.84
22.32
25.82
27.74
27.74
25.94
22.89
19.35
16.04
13.33
11.23
9.43
7.61
5.63
3.69
2.21
1.62
2.05
3.17
4.28
4.60
3.59
1.14
-2.43
-6.53
-10.59
-14.14
-16.86
-18.51
-18.83
-17.63
-14.93
-11.00
-6.37
-1.62
2.80
6.75
10.35
13.80
17.24
20.65
23.83
26.51
28.48
29.65
30.08
30.01
29.83
29.89
30.50
31.70
33.20
34.53
35.17
34.79
33.38
31.21
28.69
26.21
23.97
21.87
19.55
16.49
12.28
6.80
0.37
-6.26
-12.14
-16.50
-18.94
-19.51
-18.48
-16.14
-12.66
-8.15
-2.79
2.99
8.65
13.64
17.67
20.68
22.80
24.17
24.86
24.86
24.20
23.01
21.54
20.03
18.61
17.28
15.95
14.55
13.11
11.77
10.59
9.53
8.39
6.85
4.61
1.51
-2.46
-7.06
-11.93
-16.63
-20.63
-23.52
-24.97
-24.86
-23.28
-20.56
-17.08
-13.31
-9.65
-6.43
-3.84
-1.91
-0.58
0.35
0.97
1.32
1.32
0.89
-0.04
-1.42
-3.12
-4.95
-6.71
-8.26
-9.49
-10.37
-10.93
-11.22
-11.36
-11.48
-11.65
-11.88
-12.04
-11.91
-11.26
-9.95
-8.01
-5.63
-3.05
-0.40
2.34
5.41
9.07
13.45
18.43
23.64
28.54
32.61
35.49
37.07
37.46
36.91
35.69
34.02
32.03
29.78
27.30
24.67
21.95
19.19
16.36
13.39
10.20
6.78
3.25
-0.26
-3.61
-6.79
-9.91
-13.15
-16.70
-20.65
-24.96
-29.50
-34.09
-38.50
-42.48
-45.75
-47.98
-48.79
-47.87
-45.03
-40.32
-34.09
-26.97
-19.68
-12.89
-7.00
-2.11
1.95
5.42
8.50
11.26
13.71
15.82
17.63
19.27
20.90
22.65
24.57
26.56
28.38
29.71
30.19
29.50
27.50
24.21
19.90
15.06
10.23
5.92
2.45
-0.13
-1.99
-3.45
-4.85
-6.48
-8.57
-11.18
-14.18
-17.17
-19.60
-20.92
-20.83
-19.44
-17.30
-15.14
-13.58
-12.84
-12.64
-12.36
-11.35
-9.24
-6.02
-2.02
2.38
6.86
11.29
15.67
19.97
24.04
27.57
30.25
31.87
32.44
32.11
31.12
29.55
27.35
24.28
20.20
15.13
9.37
3.48
-1.96
-6.51
-9.99
-12.51
-14.44
-16.22
-18.13
-20.18
-22.00
-23.09
-22.97
-21.49
-18.89
-15.72
-12.62
-10.05
-8.13
-6.65
-5.25
-3.51
-1.17
1.86
5.48
9.51
13.64
17.53
20.89
23.49
25.22
26.15
26.47
26.47
26.50
26.80
27.45
28.30
29.02
29.23
28.61
27.06
24.61
21.45
17.83
13.96
10.04
6.25
2.80
-0.21
-2.75
-4.91
-6.70
-7.93
-8.03
-6.14
-1.44
6.41
16.88
28.61
39.80
48.99
55.67
60.59
65.49
72.44
83.14
98.28
117.35
138.75
160.08
178.67
191.89
197.57
194.24
181.41
159.75
131.17
98.63
65.67
35.61
10.80
-7.91
-21.21
-30.81
-38.70
-46.38
-54.64
-63.66
-73.43
-84.04
-95.51
-107.35
-118.11
-125.43
-126.83
-120.76
-107.62
-89.81
-70.85
-53.83
-40.19
-29.42
-19.99
-10.82
-2.46
2.88
2.62
-4.53
-17.38
-32.53
-45.91
-54.66
-58.11
-57.50
-54.96
-52.44
-51.29
-52.57
-57.38
-66.65
-80.41
-97.08
-113.42
-125.73
-131.31
-129.79
-123.13
-114.59
-107.13
-102.33
-100.16
-99.58
-99.49
-99.29
-99.07
-99.29
-100.14
-101.24
-101.48
-99.54
-94.46
-86.25
-75.97
-65.31
-55.83
-48.30
-42.50
-37.51
-32.36
-26.57
-20.36
-14.40
-9.36
-5.56
-2.78
-0.40
2.23
5.56
9.58
13.87
17.79
20.69
22.26
22.67
22.58
22.83
24.20
26.97
30.76
34.65
37.53
38.70
38.13
36.59
35.19
34.80
35.60
36.99
37.95
37.53
35.28
31.23
25.65
18.73
10.57
1.33
-8.53
-18.27
-27.21
-35.02
-41.81
-47.76
-52.76
-56.05
-56.47
-52.88
-44.80
-32.66
-17.66
-1.42
14.49
28.74
40.28
48.33
52.44
52.53
48.95
42.46
33.99
24.53
14.95
5.99
-1.78
-7.97
-12.44
-15.27
-16.85
-17.74
-18.55
-19.66
-21.06
-22.33
-22.70
-21.46
-18.15
-12.83
-5.96
1.80
9.85
17.77
25.34
32.42
38.84
44.44
49.07
52.67
55.34
57.21
58.35
58.80
58.64
58.10
57.60
57.66
58.61
60.34
62.22
63.38
63.07
61.16
58.10
54.68
51.39
48.01
43.52
36.52
25.95
11.83
-4.60
-21.17
-35.54
-46.07
-52.32
-55.02
-55.70
-56.03
-57.20
-59.54
-62.50
-64.81
-64.90
-61.43
-53.69
-41.96
-27.57
-12.63
0.49
9.85
14.35
13.97
9.51
2.23
-6.58
-15.90
-25.15
-34.19
-43.12
-52.10
-61.13
-69.89
-77.74
-83.82
-87.23
-87.23
-83.34
-75.33
-63.28
-47.67
-29.42
-9.94
9.07
25.93
39.44
49.15
55.49
59.67
63.22
67.53
73.29
80.31
87.54
93.58
97.32
98.40
97.35
95.31
93.52
92.67
92.53
91.80
88.56
80.97
68.07
50.40
30.08
10.21
-6.15
-16.92
-21.53
-20.96
-17.19
-12.66
-9.99
-11.67
-19.44
-33.38
-51.16
-68.25
-79.41
-80.91
-72.32
-56.63
-38.69
-22.92
-11.46
-3.97
1.10
4.85
7.06
6.63
2.85
-3.55
-10.35
-14.94
-15.65
-12.53
-7.06
-1.16
3.83
7.77
11.49
16.20
22.80
31.42
41.47
51.82
61.27
68.81
73.90
76.48
76.97
76.00
74.15
71.69
68.50
64.33
59.04
52.82
46.18
39.68
33.76
28.62
24.33
21.01
18.86
18.06
18.57
20.02
21.74
23.06
23.56
23.21
22.34
21.41
20.68
20.15
19.57
18.65
17.26
15.51
13.69
12.07
10.74
9.57
8.28
6.64
4.64
2.43
0.30
-1.54
-3.01
-4.23
-5.38
-6.63
-8.04
-9.54
-11.03
-12.50
-14.03
-15.78
-17.81
-19.90
-21.58
-22.33
-21.79
-19.98
-17.30
-14.34
-11.56
-9.18
-7.17
-5.44
-4.02
-3.10
-2.89
-3.50
-4.80
-6.50
-8.29
-9.96
-11.45
-12.81
-14.14
-15.55
-17.04
-18.57
-19.99
-21.12
-21.85
-22.16
-22.23
-22.32
-22.73
-23.61
-24.93
-26.50
-28.08
-29.46
-30.57
-31.47
-32.29
-33.07
-33.73
-33.98
-33.38
-31.49
-28.02
-22.95
-16.52
-9.17
-1.42
6.28
13.56
20.16
25.88
30.55
34.09
36.45
37.60
37.39
35.50
31.50
25.05
16.21
5.59
-5.65
-16.16
-24.85
-31.24
-35.61
-38.76
-41.60
-44.77
-48.39
-52.20
-55.87
-59.53
-63.92
-70.19
-79.11
-90.33
-102.12
-111.94
-117.41
-117.30
-111.88
-102.67
-91.68
-80.63
-70.45
-61.19
-52.24
-42.89
-32.70
-21.57
-9.78
1.88
12.07
18.76
19.62
12.92
-1.32
-20.61
-40.32
-55.05
-60.84
-56.96
-46.29
-33.93
-24.70
-20.89
-21.66
-24.09
-25.24
-23.81
-20.54
-17.38
-16.04
-16.98
-19.12
-20.62
-19.94
-16.66
-11.66
-6.55
-2.78
-0.93
-0.45
-0.16
1.02
3.45
6.62
9.47
11.09
11.15
10.05
8.67
7.83
7.85
8.35
8.46
7.20
4.06
-0.85
-6.71
-12.41
-16.92
-19.67
-20.73
-20.66
-20.26
-20.20
-20.81
-21.93
-23.11
-23.81
-23.64
-22.48
-20.51
-17.91
-14.63
-10.27
-4.08
4.68
16.34
30.63
46.70
63.33
79.26
93.31
104.44
112.07
116.28
118.10
119.34
122.00
127.50
135.93
146.05
155.91
163.65
168.20
169.31
167.27
162.56
155.69
147.30
138.15
128.94
119.93
110.85
101.08
90.28
78.63
66.69
54.90
43.12
30.64
16.71
1.12
-15.51
-32.02
-47.32
-60.83
-72.53
-82.54
-90.77
-96.88
-100.63
-102.30
-102.75
-103.02
-103.80
-105.09
-106.41
-107.24
-107.28
-106.51
-104.87
-102.08
-97.66
-91.25
-82.88
-73.25
-63.58
-55.20
-49.11
-45.71
-44.84
-46.03
-48.76
-52.56
-57.13
-62.14
-67.21
-71.80
-75.13
-76.42
-75.03
-70.84
-64.30
-56.33
-47.89
-39.61
-31.71
-24.05
-16.40
-8.67
-1.15
5.57
10.81
14.24
15.93
16.28
15.80
14.75
13.21
11.03
8.15
4.74
1.38
-1.34
-3.10
-4.08
-4.88
-6.11
-8.22
-11.32
-15.29
-19.50
-23.42
-26.76
-29.58
-32.07
-34.01
-35.11
-35.14
-34.11
-31.48
-26.62
-19.00
-8.63
3.63
16.63
28.41
36.73
39.63
37.36
31.89
26.27
23.79
26.88
37.34
54.77
76.64
98.19
115.28
125.11
127.16
123.49
112.39
95.40
77.02
65.60
60.68
60.88
64.50
71.30
81.16
92.48
103.09
110.07
111.98
107.68
98.04
85.11
71.31
59.28
50.72
46.70
46.00
46.05
40.93
24.07
-9.30
-61.75
-125.44
-184.12
-221.40
-237.90
-236.93
-223.35
-202.57
-174.20
-141.25
-107.89
-77.98
-52.49
-29.85
-4.97
26.34
62.42
95.34
122.69
142.87
148.69
137.52
111.86
80.11
52.18
35.63
33.42
43.02
57.93
71.32
79.68
82.33
80.99
77.15
71.68
66.60
65.72
72.72
88.41
108.96
125.21
126.67
106.51
65.73
13.67
-36.20
-72.43
-89.72
-89.26
-77.27
-61.39
-47.97
-40.75
-40.56
-46.01
-54.69
-63.83
-70.64
-72.95
-69.28
-58.94
-42.24
-20.68
2.70
23.65
37.97
43.02
38.79
27.95
14.93
4.19
-1.36
-1.19
3.08
8.64
12.95
14.81
14.62
13.94
14.42
16.87
20.79
24.69
26.92
26.51
23.67
19.76
16.51
15.35
16.79
20.37
24.93
29.23
32.30
33.75
33.69
32.51
30.71
28.66
26.46
24.01
21.05
17.25
12.27
5.86
-2.13
-11.65
-22.34
-33.47
-44.04
-53.08
-60.00
-64.78
-67.95
-70.18
-71.91
-73.08
-73.43
-72.88
-71.94
-71.79
-73.84
-79.03
-87.32
-97.58
-108.03
-116.92
-123.23
-126.87
-128.51
-129.11
-129.41
-129.58
-129.23
-127.49
-123.15
-114.78
-100.92
-80.32
-52.44
-17.90
21.44
62.66
102.32
137.19
164.64
182.97
191.23
188.98
176.47
154.55
125.07
90.67
54.66
20.39
-8.90
-30.49
-42.47
-44.11
-35.90
-19.31
3.49
29.86
56.78
80.86
98.79
107.95
107.23
97.43
81.00
61.21
41.22
23.31
8.79
-1.75
-8.18
-10.76
-10.51
-9.26
-9.30
-12.55
-19.67
-29.90
-41.49
-52.59
-61.79
-68.64
-73.39
-76.61
-78.64
-79.49
-78.76
-75.98
-70.87
-63.70
-55.27
-46.67
-38.90
-32.52
-27.55
-23.63
-20.31
-17.33
-14.74
-12.68
-11.15
-9.83
-8.18
-5.70
-2.23
1.98
6.43
10.72
14.72
18.63
22.69
27.01
31.37
35.40
38.77
41.43
43.56
45.35
46.77
47.38
46.63
44.18
40.28
35.83
32.05
29.95
29.96
31.79
34.73
37.99
40.90
42.94
43.54
42.10
38.08
31.39
22.52
12.54
2.64
-6.23
-13.65
-19.65
-24.41
-27.96
-30.19
-31.01
-30.71
-30.03
-29.98
-31.27
-33.88
-36.94
-39.13
-39.37
-37.40
-33.86
-29.88
-26.42
-23.76
-21.56
-19.25
-16.46
-13.21
-9.72
-6.14
-2.33
1.92
6.60
11.31
15.31
17.85
18.56
17.65
15.77
13.66
11.86
10.52
9.41
8.11
6.23
3.69
0.73
-2.17
-4.43
-5.56
-5.38
-3.90
-1.30
2.13
5.97
9.62
12.31
13.28
12.10
8.88
4.35
-0.34
-4.01
-5.83
-5.52
-3.35
0.08
4.09
8.05
11.48
14.04
15.48
15.66
14.58
12.44
9.63
6.70
4.10
2.03
0.26
-1.80
-4.80
-9.12
-14.55
-20.25
-25.01
-27.71
-27.76
-25.34
-21.24
-16.65
-12.60
-9.79
-8.36
-8.05
-8.32
-8.60
-8.45
-7.61
-6.02
-3.77
-0.97
2.22
5.63
8.95
11.79
13.72
14.44
13.92
12.44
10.48
8.53
6.96
5.89
5.21
4.71
4.13
3.34
2.32
1.21
0.21
-0.51
-0.82
-0.70
-0.13
0.92
2.48
4.56
7.06
9.78
12.50
15.05
17.45
19.83
22.41
25.32
28.48
31.70
34.74
37.36
39.43
40.86
41.57
41.50
40.56
38.74
36.10
32.82
29.12
25.23
21.24
17.14
12.79
8.06
2.94
-2.40
-7.74
-12.81
-17.50
-21.89
-26.16
-30.56
-35.23
-40.14
-45.06
-49.62
-53.35
-55.78
-56.62
-55.72
-53.19
-49.27
-44.35
-38.79
-32.93
-27.02
-21.26
-15.76
-10.64
-5.98
-1.85
1.73
4.77
7.31
9.42
11.19
12.74
14.22
15.77
17.50
19.46
21.59
23.79
25.95
28.03
30.00
31.87
33.64
35.29
36.93
38.76
41.16
44.47
48.87
54.28
60.34
66.54
72.49
77.98
83.08
88.03
93.00
97.94
102.46
105.93
107.69
107.29
104.61
99.84
93.45
85.98
77.95
69.81
61.92
54.48
47.51
40.85
34.25
27.57
20.81
14.09
7.54
1.18
-5.00
-10.86
-15.94
-19.51
-20.92
-20.03
-17.51
-14.67
-12.97
-13.42
-16.25
-20.97
-26.90
-33.64
-41.16
-49.56
-58.44
-66.64
-72.33
-73.62
-69.46
-60.13
-47.09
-32.32
-17.41
-3.14
10.31
22.70
33.15
40.09
41.90
37.88
28.82
16.84
4.59
-5.91
-13.87
-19.74
-24.52
-28.94
-32.99
-36.09
-37.55
-37.16
-35.30
-32.68
-29.65
-25.97
-21.15
-15.34
-10.14
-8.55
-13.64
-26.82
-46.48
-68.16
-86.21
-96.18
-96.69
-89.68
-79.15
-69.18
-62.31
-59.11
-58.74
-59.94
-61.77
-63.77
-65.73
-67.36
-68.31
-68.17
-66.72
-64.12
-60.86
-57.56
-54.68
-52.32
-50.16
-47.65
-44.33
-40.06
-35.05
-29.75
-24.61
-19.93
-15.89
-12.57
-10.02
-8.25
-7.21
-6.80
-6.91
-7.35
-7.94
-8.44
-8.56
-8.02
-6.57
-4.02
-0.29
4.63
10.63
17.35
24.11
29.93
33.81
35.05
33.61
30.17
25.90
21.96
19.11
17.47
16.73
16.44
16.30
16.27
16.41
16.75
17.21
17.78
18.57
19.82
21.73
24.12
26.37
27.66
27.32
25.19
21.68
17.41
12.83
7.85
1.93
-5.48
-14.53
-24.73
-35.07
-44.50
-52.21
-57.90
-61.57
-63.29
-63.08
-60.80
-56.40
-50.01
-41.99
-32.93
-23.46
-14.15
-5.49
2.17
8.66
14.04
18.59
22.74
26.82
30.87
34.42
36.71
36.92
34.61
29.95
23.65
16.62
9.54
2.52
-4.85
-13.16
-22.78
-33.42
-44.19
-53.89
-61.47
-66.31
-68.26
-67.59
-64.69
-59.97
-53.79
-46.59
-38.71
-30.34
-21.22
-10.82
1.35
15.14
29.50
42.63
52.77
59.28
63.27
67.53
75.14
87.78
104.52
122.05
136.14
143.42
142.89
135.98
125.79
115.02
104.64
93.84
81.35
66.77
51.08
36.45
25.03
18.66
17.55
20.01
23.30
25.20
24.88
22.78
20.14
17.86
17.14
18.11
19.31
18.33
13.47
4.60
-7.15
-19.39
-29.65
-34.19
-30.14
-17.10
2.62
25.61
48.65
69.23
86.27
89.25
71.79
36.28
-7.53
-50.48
-87.42
-115.10
-135.16
-147.98
-153.99
-152.64
-144.18
-129.11
-110.04
-89.59
-69.29
-49.85
-30.95
-12.47
6.36
25.49
43.55
58.10
67.42
71.10
69.70
64.50
56.49
47.19
38.03
30.06
23.58
18.61
14.97
12.15
9.84
7.86
6.64
6.78
8.55
11.59
15.33
19.23
22.75
25.54
27.29
27.96
27.80
27.22
26.60
26.22
26.17
26.29
26.39
26.40
26.37
26.49
26.90
27.67
28.78
30.16
31.78
33.55
35.30
36.66
37.15
36.34
34.04
30.36
25.73
20.67
15.66
11.06
7.03
3.60
0.73
-1.73
-3.95
-6.20
-8.75
-11.82
-15.41
-19.33
-23.21
-26.74
-29.82
-32.58
-35.19
-37.53
-39.04
-38.73
-35.64
-29.54
-21.40
-13.42
-8.27
-8.02
-13.19
-22.37
-32.68
-40.85
-44.30
-41.94
-34.24
-22.89
-10.16
1.51
9.70
12.20
7.37
-5.25
-24.36
-46.72
-67.84
-83.12
-89.37
-85.75
-73.85
-56.90
-38.40
-21.00
-5.97
6.42
16.48
24.52
30.78
35.62
39.72
44.06
49.53
56.40
63.65
69.46
71.99
70.17
64.11
54.91
43.88
31.82
18.48
2.09
-19.15
-45.80
-76.49
-108.17
-137.00
-159.65
-174.21
-180.44
-180.60
-177.72
-174.46
-172.40
-171.77
-171.33
-168.90
-161.87
-148.00
-127.71
-103.11
-77.43
-54.40
-37.41
-28.79
-29.87
-40.74
-51.52
-53.60
-41.98
-17.43
15.53
52.60
90.94
128.02
161.36
188.99
208.45
218.28
218.34
210.95
196.62
176.87
153.83
129.89
107.23
86.41
66.82
49.72
33.89
18.37
4.02
-7.67
-15.49
-19.06
-19.76
-20.27
-20.82
-23.12
-27.96
-34.46
-40.87
-44.86
-43.83
-35.62
-19.61
5.70
34.46
56.03
61.62
49.24
23.58
-7.23
-35.26
-57.24
-72.66
-82.94
-89.24
-91.69
-90.17
-85.25
-78.65
-70.18
-61.53
-53.54
-46.55
-39.64
-30.92
-18.72
-2.56
16.64
36.86
55.11
68.82
75.85
75.39
68.34
56.88
43.77
31.71
22.81
17.85
16.75
18.30
20.66
22.05
21.19
17.63
11.78
4.75
-2.22
-7.92
-11.50
-12.46
-10.58
-5.95
0.93
9.17
17.55
24.73
29.81
32.48
33.05
32.18
30.67
29.16
28.06
27.52
27.47
27.72
27.96
27.84
27.08
25.55
23.33
20.72
18.07
15.68
13.65
11.82
9.91
7.58
4.70
1.32
-2.28
-5.74
-8.70
-10.84
-11.94
-11.81
-10.37
-7.76
-4.37
-0.83
2.16
4.09
4.88
4.84
4.60
4.74
5.55
6.96
8.60
9.98
10.78
10.91
10.48
9.67
8.59
7.21
5.30
2.60
-1.05
-5.52
-10.33
-14.76
-18.08
