1478934634.00
64.000000
-0.00
-0.00
-0.00
-0.00
-0.00
-0.00
-0.00
-0.00
-0.00
-0.00
0.00
0.01
0.01
-0.00
-0.03
-0.05
-0.05
0.00
0.13
0.36
0.66
1.01
1.37
1.72
2.06
2.40
2.79
3.24
3.80
4.42
5.06
5.66
6.20
6.68
7.15
7.68
8.31
9.14
10.09
11.04
11.88
12.56
13.14
13.76
14.65
15.96
17.91
20.32
22.90
25.38
27.58
29.57
31.68
34.32
37.81
42.54
48.15
54.10
59.83
64.97
69.58
74.14
79.34
85.71
93.76
103.00
112.62
121.73
129.77
136.75
143.30
150.74
157.77
166.64
177.95
191.81
207.01
220.61
228.27
225.33
208.39
176.60
132.36
79.55
22.52
-35.50
-92.97
-149.69
-205.80
-261.03
-314.52
-364.77
-410.80
-451.89
-487.44
-516.63
-538.13
-550.25
-551.23
-539.95
-516.09
-480.75
-435.98
-384.46
-328.92
-271.80
-214.94
-159.63
-106.78
-57.03
-11.13
30.19
66.19
96.34
120.41
138.64
151.65
160.39
165.92
169.09
170.46
170.16
168.00
163.72
157.22
148.80
139.15
129.19
119.72
111.20
103.61
96.50
89.28
81.39
72.41
62.09
50.55
38.56
27.79
20.63
19.47
25.48
37.87
53.74
69.14
80.61
86.34
86.51
82.73
76.93
70.43
63.68
56.62
49.25
42.04
35.69
30.86
27.73
25.94
24.70
23.19
20.90
17.82
14.42
11.35
9.17
8.07
7.74
7.60
7.05
5.77
3.87
1.72
-0.26
-1.82
-2.92
-3.57
-3.73
-3.21
-1.90
0.11
2.39
4.37
5.58
5.82
5.25
4.22
2.99
1.64
0.15
-1.48
-3.12
-4.50
-5.37
-5.68
-5.59
-5.38
-5.26
-5.27
-5.35
-5.31
-5.09
-4.67
-4.13
-3.57
-3.08
-2.72
-2.53
-2.50
-2.58
-2.66
-2.65
-2.50
-2.19
-1.79
-1.38
-0.97
-0.53
0.02
0.80
1.84
3.19
4.81
6.65
8.57
10.37
11.82
12.71
12.99
12.74
12.16
11.48
10.81
10.15
9.39
8.36
7.01
5.33
3.45
1.42
-0.65
-2.66
-4.55
-6.24
-7.73
-9.03
-10.16
-11.16
-12.01
-12.65
-12.98
-12.98
-12.67
-12.16
-11.59
-11.05
-10.59
-10.21
-9.87
-9.52
-9.10
-8.49
-7.54
-6.10
-4.14
-1.81
0.54
2.50
3.70
4.02
3.57
2.62
1.51
0.46
-0.46
-1.30
-2.13
-2.98
-3.74
-4.31
-4.55
-4.43
-4.00
-3.40
-2.76
-2.23
-1.87
-1.71
-1.71
-1.85
-2.08
-2.43
-2.86
-3.32
-3.75
-4.10
-4.36
-4.67
-5.15
-5.89
-6.85
-7.81
-8.27
-7.80
-6.11
-3.25
0.45
4.45
8.23
11.44
13.92
15.67
16.72
17.08
16.73
15.66
13.97
11.82
9.43
7.04
4.82
2.89
1.31
0.13
-0.65
-1.09
-1.30
-1.41
-1.56
-1.82
-2.24
-2.81
-3.52
-4.34
-5.22
-6.16
-7.15
-8.28
-9.62
-11.25
-13.11
-14.98
-16.48
-17.14
-16.54
-14.50
-11.10
-6.70
-1.86
2.88
7.04
10.39
12.83
14.37
15.05
14.88
13.91
12.29
10.25
8.08
6.06
4.36
3.07
2.14
1.55
1.22
1.10
1.08
1.04
0.84
0.41
-0.26
-1.10
-2.04
-3.00
-4.00
-5.10
-6.39
-7.92
-9.66
-11.52
-13.28
-14.66
-15.37
-15.09
-13.62
-10.95
-7.29
-3.06
1.24
5.13
8.33
10.74
12.38
13.34
13.67
13.39
12.54
11.26
9.73
8.19
6.78
5.57
4.52
3.60
2.78
2.10
1.54
1.08
0.63
0.12
-0.48
-1.15
-1.88
-2.65
-3.57
-4.74
-6.24
-8.08
-10.13
-12.18
-13.99
-15.32
-15.96
-15.75
-14.55
-12.34
-9.15
-5.18
-0.74
3.78
7.92
11.29
13.61
14.78
14.88
14.11
12.73
10.98
9.06
7.14
5.38
3.90
2.82
2.16
1.81
1.62
1.41
1.06
0.52
-0.20
-1.02
-1.91
-2.83
-3.76
-4.78
-5.97
-7.44
-9.22
-11.21
-13.14
-14.61
-15.20
-14.62
-12.75
-9.74
-5.91
-1.66
2.58
6.46
9.65
11.94
13.21
13.47
12.87
11.66
10.15
8.53
6.95
5.44
4.01
2.68
1.52
0.57
-0.14
-0.66
-1.05
-1.40
-1.76
-2.20
-2.81
-3.69
-4.96
-6.66
-8.75
-11.11
-13.49
-15.57
-17.00
-17.41
-16.60
-14.52
-11.34
-7.44
-3.23
0.92
4.74
8.08
10.83
12.89
14.15
14.54
14.07
12.85
11.08
9.02
6.93
5.05
3.55
2.46
1.75
1.29
0.93
0.57
0.14
-0.38
-1.04
-1.86
-2.90
-4.19
-5.73
-7.47
-9.37
-11.36
-13.34
-15.13
-16.44
-16.89
-16.12
-13.94
-10.45
-6.02
-1.21
3.43
7.50
10.78
13.24
14.87
15.67
15.63
14.80
13.35
11.53
9.61
7.84
6.34
5.17
4.33
3.80
3.50
3.32
3.04
2.50
1.61
0.42
-0.92
-2.23
-3.42
-4.50
-5.56
-6.74
-8.13
-9.74
-11.51
-13.22
-14.53
-15.03
-14.37
-12.34
-9.03
-4.78
-0.06
4.61
8.87
12.44
15.15
16.88
17.59
17.34
16.32
14.86
13.23
11.65
10.17
8.76
7.39
6.11
5.00
4.15
3.58
3.19
2.83
2.32
1.56
0.53
-0.67
-1.96
-3.20
-4.35
-5.48
-6.70
-8.16
-9.94
-11.91
-13.75
-15.00
-15.19
-14.01
-11.44
-7.73
-3.30
1.32
5.69
9.48
12.50
14.66
15.94
16.38
16.04
15.05
13.61
11.93
10.20
8.58
7.15
5.94
4.94
4.13
3.49
2.98
2.52
2.01
1.35
0.49
-0.54
-1.68
-2.87
-4.06
-5.30
-6.66
-8.22
-10.01
-11.88
-13.59
-14.75
-14.99
-14.05
-11.90
-8.77
-5.03
-1.12
2.64
6.04
8.95
11.28
12.87
13.58
13.35
12.28
10.64
8.79
7.06
5.64
4.57
3.79
3.14
2.55
1.96
1.34
0.70
0.04
-0.62
-1.27
-1.92
-2.60
-3.38
-4.32
-5.50
-6.97
-8.70
-10.59
-12.41
-13.83
-14.51
-14.18
-12.70
-10.15
-6.80
-3.02
0.81
4.35
7.38
9.72
11.30
12.09
12.15
11.58
10.55
9.24
7.80
6.36
5.04
3.89
2.97
2.27
1.76
1.39
1.04
0.65
0.18
-0.37
-0.99
-1.71
-2.55
-3.59
-4.87
-6.40
-8.16
-10.07
-12.00
-13.76
-15.09
-15.72
-15.37
-13.87
-11.25
-7.76
-3.83
0.05
3.42
5.99
7.67
8.53
8.75
8.49
7.93
7.21
6.43
5.73
5.17
4.81
4.57
4.36
4.07
3.63
3.03
2.31
1.53
0.69
-0.19
-1.16
-2.20
-3.32
-4.48
-5.64
-6.80
-7.96
-9.16
-10.49
-12.04
-13.81
-15.65
-17.18
-17.92
-17.42
-15.43
-12.08
-7.76
-3.02
1.65
5.99
9.93
13.55
16.93
20.02
22.60
24.33
24.83
23.81
21.22
17.23
12.24
6.70
1.05
-4.42
-9.52
-14.14
-18.17
-21.47
-23.84
-25.16
-25.54
-25.28
-24.83
-24.58
-24.75
-25.32
-26.12
-27.01
-27.91
-28.80
-29.50
-29.62
-28.44
-25.39
-20.33
-13.73
-6.47
0.59
6.97
12.73
18.22
23.77
28.79
31.89
31.77
28.28
22.90
17.83
15.37
15.94
19.11
23.84
29.13
34.47
39.22
43.17
46.19
48.12
48.73
47.86
45.42
41.37
35.85
29.08
21.56
13.87
6.72
0.72
-3.68
-6.50
-8.22
-9.56
-11.09
-12.86
-14.50
-15.36
-14.88
-12.87
-9.61
-5.87
-2.59
-0.67
-0.72
-2.92
-6.86
-11.63
-15.95
-18.54
-18.56
-15.84
-10.97
-5.05
0.64
5.01
7.43
7.73
6.09
2.82
-1.67
-6.94
-12.46
-17.67
-22.07
-25.32
-27.35
-28.31
-28.45
-28.02
-27.18
-26.00
-24.49
-22.68
-20.62
-18.36
-15.97
-13.50
-11.08
-8.85
-7.03
-5.81
-5.26
-5.32
-5.80
-6.42
-6.90
-7.01
-6.65
-5.89
-4.93
-4.02
-3.39
-3.12
-3.13
-3.20
-3.06
-2.58
-1.86
-1.22
-1.09
-1.85
-3.65
-6.29
-9.32
-12.16
-14.31
-15.46
-15.54
-14.63
-12.97
-10.78
-8.28
-5.61
-2.91
-0.26
2.26
4.59
6.61
8.16
9.02
8.97
7.85
5.74
2.98
0.23
-1.77
-2.38
-1.35
1.05
4.11
6.95
8.83
9.41
8.75
7.23
5.27
3.22
1.25
-0.56
-2.15
-3.36
-4.01
-3.93
-3.06
-1.47
0.61
2.91
5.20
7.30
9.16
10.76
12.15
13.29
14.12
14.58
14.59
14.15
13.34
12.30
11.18
10.06
9.02
8.03
7.08
6.12
5.14
4.13
3.14
2.23
1.44
0.80
0.25
-0.33
-1.11
-2.19
-3.52
-4.88
-5.94
-6.41
-6.13
-5.11
-3.56
-1.69
0.30
2.25
4.05
5.61
6.80
7.59
7.98
8.05
7.89
7.57
7.09
6.46
5.71
4.94
4.25
3.68
3.22
2.78
2.31
1.77
1.26
0.84
0.60
0.50
0.45
0.26
-0.27
-1.29
-2.77
-4.52
-6.12
-7.08
-7.01
-5.76
-3.53
-0.78
1.94
4.21
5.86
6.98
7.76
8.35
8.76
8.92
8.74
8.29
7.73
7.27
6.97
6.79
6.49
5.86
4.83
3.48
2.07
0.87
0.02
-0.43
-0.63
-0.76
-1.01
-1.53
-2.39
-3.52
-4.74
-5.74
-6.21
-5.92
-4.84
-3.16
-1.18
0.76
2.47
3.86
4.97
5.84
6.48
6.88
7.03
6.94
6.71
6.43
6.19
6.02
5.86
5.62
5.21
4.53
3.62
2.56
1.52
0.66
0.06
-0.35
-0.72
-1.26
-2.06
-3.11
-4.27
-5.34
-6.10
-6.39
-6.11
-5.26
-3.91
-2.24
-0.47
1.19
2.62
3.80
4.75
5.52
6.09
6.41
6.43
6.16
5.68
5.08
4.45
3.79
3.09
2.36
1.66
1.07
0.67
0.47
0.41
0.36
0.24
-0.03
-0.47
-1.05
-1.75
-2.53
-3.35
-4.13
-4.77
-5.12
-5.08
-4.60
-3.72
-2.57
-1.30
-0.06
1.06
2.04
2.87
3.54
3.99
4.18
4.06
3.71
3.22
2.73
2.34
2.08
1.93
1.84
1.79
1.78
1.81
1.86
1.86
1.73
1.36
0.71
-0.26
-1.48
-2.83
-4.10
-5.07
-5.54
-5.46
-4.89
-4.00
-2.97
-1.95
-1.01
-0.16
0.57
1.20
1.70
2.11
2.43
2.68
2.84
2.86
2.68
2.28
1.68
0.92
0.12
-0.62
-1.17
-1.47
-1.52
-1.42
-1.41
-1.67
-2.34
-3.36
-4.56
-5.71
-6.66
-7.33
-7.67
-7.66
-7.22
-6.34
-5.07
-3.59
-2.17
-1.02
-0.21
0.32
0.74
1.16
1.60
1.99
2.23
2.27
2.14
1.91
1.67
1.47
1.30
1.08
0.72
0.18
-0.53
-1.31
-2.03
-2.60
-3.02
-3.38
-3.82
-4.41
-5.11
-5.76
-6.14
-6.09
-5.59
-4.75
-3.76
-2.81
-1.97
-1.20
-0.39
0.54
1.59
2.66
3.54
4.04
4.05
3.63
2.96
2.25
1.70
1.40
1.31
1.34
1.37
1.32
1.13
0.79
0.30
-0.33
-1.06
-1.88
-2.75
-3.66
-4.54
-5.34
-5.95
-6.28
-6.27
-5.92
-5.31
-4.49
-3.51
-2.35
-1.03
0.41
1.87
3.21
4.33
5.17
5.73
6.06
6.20
6.17
6.04
5.86
5.65
5.39
5.00
4.39
3.52
2.48
1.41
0.46
-0.27
-0.82
-1.30
-1.85
-2.56
-3.44
-4.40
-5.31
-6.04
-6.46
-6.51
-6.18
-5.53
-4.64
-3.59
-2.40
-1.10
0.30
1.73
3.08
4.24
5.11
5.70
6.06
6.29
6.47
6.59
6.60
6.43
6.02
5.39
4.58
3.66
2.72
1.83
1.06
0.42
-0.11
-0.58
-1.07
-1.66
-2.43
-3.37
-4.43
-5.54
-6.55
-7.34
-7.82
-7.90
-7.56
-6.82
-5.75
-4.40
-2.85
-1.18
0.54
2.18
3.61
4.67
5.27
5.41
5.21
4.87
4.57
4.43
4.42
4.40
4.21
3.75
3.03
2.20
1.41
0.82
0.44
0.21
-0.00
-0.34
-0.87
-1.61
-2.52
-3.55
-4.64
-5.71
-6.66
-7.38
-7.76
-7.74
-7.31
-6.52
-5.46
-4.19
-2.80
-1.33
0.18
1.67
3.08
4.27
5.13
5.56
5.55
5.18
4.65
4.17
3.85
3.71
3.64
3.46
3.10
2.58
2.04
1.64
1.44
1.39
1.33
1.09
0.62
-0.05
-0.79
-1.50
-2.13
-2.72
-3.30
-3.86
-4.27
-4.36
-3.96
-3.02
-1.59
0.16
2.02
3.81
5.39
6.70
7.75
8.55
9.15
9.59
9.84
9.86
9.64
9.21
8.68
8.21
7.94
7.90
8.03
8.19
8.28
8.26
8.15
8.02
7.92
7.85
7.79
7.65
7.39
6.96
6.40
5.82
5.39
5.29
5.67
6.54
7.78
9.21
10.69
12.18
13.78
15.58
17.56
19.48
20.94
21.60
21.33
20.29
18.86
17.36
15.91
14.39
12.64
10.64
8.60
6.95
6.08
6.16
7.07
8.54
10.31
12.21
14.18
16.04
17.44
17.82
16.62
13.55
8.73
2.74
-3.55
-9.31
-13.97
-17.33
-19.55
-20.91
-21.74
-22.25
-22.53
-22.61
-22.48
-22.17
-21.67
-20.95
-19.96
-18.61
-16.89
-14.85
-12.68
-10.69
-9.22
-8.55
-8.82
-9.96
-11.74
-13.87
-16.02
-18.01
-19.76
-21.22
-22.39
-23.14
-23.34
-22.80
-21.42
-19.25
-16.48
-13.44
-10.46
-7.79
-5.51
-3.62
-2.03
-0.71
0.30
0.90
0.97
0.42
-0.78
-2.60
-4.94
-7.57
-10.22
-12.55
-14.29
-15.26
-15.43
-14.88
-13.78
-12.31
-10.63
-8.91
-7.36
-6.17
-5.51
-5.44
-5.89
-6.67
-7.58
-8.50
-9.39
-10.35
-11.48
-12.85
-14.41
-16.01
-17.43
-18.42
-18.80
-18.47
-17.44
-15.82
-13.83
-11.77
-9.92
-8.54
-7.75
-7.54
-7.77
-8.20
-8.57
-8.61
-8.17
-7.21
-5.81
-4.16
-2.52
-1.15
-0.32
-0.24
-1.00
-2.47
-4.31
-6.07
-7.30
-7.76
-7.57
-7.20
-7.32
-8.58
-11.26
-15.11
-19.30
-22.64
-23.93
-22.45
-18.18
-11.82
-4.55
2.39
8.05
12.00
14.29
15.32
15.62
15.72
16.03
16.90
18.51
20.95
24.12
27.76
31.42
34.53
36.55
37.05
35.85
33.07
29.10
24.57
20.19
16.67
14.57
14.16
15.40
17.98
21.39
25.02
28.16
29.99
29.69
26.60
20.52
12.00
2.29
-6.92
-14.00
-17.95
-18.62
-16.63
-13.03
-8.91
-5.06
-1.89
0.55
2.41
3.96
5.45
7.08
8.90
10.83
12.66
14.06
14.67
14.17
12.38
9.33
5.27
0.72
-3.73
-7.53
-10.34
-12.13
-13.08
-13.48
-13.58
-13.61
-13.69
-13.96
-14.50
-15.32
-16.28
-17.07
-17.30
-16.65
-14.94
-12.23
-8.76
-4.79
-0.59
3.67
7.86
11.76
15.11
17.55
18.81
18.73
17.43
15.24
12.58
9.87
7.33
5.02
2.91
0.96
-0.75
-2.07
-2.85
-3.06
-2.85
-2.49
-2.26
-2.32
-2.69
-3.31
-4.10
-5.01
-6.01
-7.01
-7.79
-8.10
-7.69
-6.49
-4.61
-2.27
0.28
2.87
5.37
7.67
9.55
10.77
11.10
10.48
9.09
7.28
5.44
3.86
2.65
1.72
0.86
-0.07
-1.13
-2.26
-3.35
-4.28
-5.00
-5.56
-6.10
-6.77
-7.73
-9.04
-10.65
-12.38
-13.92
-14.93
-15.11
-14.29
-12.48
-9.79
-6.44
-2.68
1.26
5.09
8.51
11.20
12.92
13.59
13.37
12.56
11.54
10.58
9.74
8.89
7.80
6.32
4.48
2.47
0.60
-0.88
-1.82
-2.31
-2.53
-2.72
-3.10
-3.81
-4.91
-6.43
-8.33
-10.44
-12.49
-14.12
-14.96
-14.77
-13.53
-11.45
-8.87
-6.17
-3.66
-1.59
-0.09
0.73
0.84
0.27
-0.85
-2.31
-3.87
-5.26
-6.26
-6.74
-6.62
-5.90
-4.64
-2.91
-0.83
1.49
3.90
6.22
8.21
9.61
10.21
9.96
8.96
7.48
5.88
4.51
3.68
3.57
4.26
5.73
7.81
10.28
12.83
15.14
16.89
17.88
18.01
17.30
15.90
14.01
11.84
9.54
7.19
4.86
2.61
0.59
-1.02
-2.08
-2.51
-2.45
-2.09
-1.68
-1.42
-1.40
-1.63
-2.12
-2.89
-3.94
-5.20
-6.47
-7.44
-7.78
-7.28
-5.92
-3.91
-1.56
0.78
2.84
4.48
5.61
6.22
6.32
5.92
5.11
4.03
2.84
1.72
0.82
0.18
-0.26
-0.59
-0.95
-1.40
-1.94
-2.49
-2.99
-3.40
-3.76
-4.19
-4.82
-5.73
-6.89
-8.16
-9.36
-10.23
-10.55
-10.13
-8.89
-6.87
-4.27
-1.40
1.39
3.79
5.60
6.77
7.37
7.48
7.21
6.61
5.68
4.47
3.02
1.46
-0.06
-1.41
-2.54
-3.44
-4.20
-4.86
-5.46
-6.00
-6.47
-6.91
-7.45
-8.24
-9.36
-10.74
-12.14
-13.14
-13.36
-12.53
-10.64
-7.88
-4.59
-1.17
2.06
4.88
7.13
8.74
9.69
10.00
9.75
9.08
8.14
7.05
5.85
4.54
3.13
1.66
0.24
-0.99
-1.95
-2.63
-3.15
-3.67
-4.32
-5.23
-6.46
-8.00
-9.83
-11.76
-13.50
-14.66
-14.83
-13.75
-11.42
-8.11
-4.24
-0.31
3.28
6.25
8.47
9.88
10.53
10.47
9.82
8.73
7.37
5.92
4.51
3.20
2.01
0.89
-0.20
-1.27
-2.27
-3.13
-3.84
-4.44
-5.06
-5.85
-6.94
-8.35
-10.04
-11.88
-13.69
-15.19
-16.02
-15.86
-14.43
-11.72
-7.97
-3.64
0.72
4.67
7.92
10.37
12.05
13.02
13.31
12.99
12.14
10.87
9.35
7.75
6.17
4.69
3.33
2.09
0.96
-0.08
-1.01
-1.85
-2.63
-3.41
-4.32
-5.48
-6.99
-8.86
-11.00
-13.13
-14.88
-15.84
-15.70
-14.31
-11.74
-8.26
-4.20
0.04
4.07
7.58
10.30
12.06
12.87
12.85
12.21
11.13
9.76
8.13
6.29
4.37
2.53
0.93
-0.35
-1.39
-2.34
-3.26
-4.16
-4.92
-5.47
-5.88
-6.41
-7.36
-8.94
-11.09
-13.42
-15.40
-16.44
-16.15
-14.38
-11.21
-6.91
-1.91
3.32
8.32
12.67
16.09
18.46
19.74
20.03
19.45
18.19
16.46
14.48
12.48
10.65
9.08
7.76
6.65
5.68
4.80
3.99
3.21
2.42
1.54
0.49
-0.71
-2.07
-3.54
-5.17
-7.02
-9.08
-11.23
-13.12
-14.24
-14.11
-12.43
-9.22
-4.86
0.10
5.07
9.58
13.34
16.17
17.96
18.65
18.27
16.95
14.96
12.64
10.37
8.41
6.86
5.72
4.86
4.17
3.56
2.97
2.39
1.79
1.11
0.30
-0.67
-1.85
-3.25
-4.89
-6.80
-8.92
-11.11
-13.04
-14.30
-14.48
-13.30
-10.72
-7.01
-2.60
2.04
6.48
10.43
13.69
16.13
17.63
18.20
17.91
16.93
15.46
13.71
11.86
10.02
8.34
6.87
5.66
4.66
3.77
2.91
2.08
1.33
0.75
0.32
-0.09
-0.69
-1.73
-3.34
-5.50
-8.07
-10.79
-13.36
-15.39
-16.44
-16.12
-14.18
-10.67
-5.99
-0.80
4.19
8.44
11.67
13.89
15.25
15.84
15.68
14.77
13.17
11.08
8.79
6.61
4.73
3.20
2.00
1.05
0.32
-0.21
-0.60
-0.94
-1.38
-2.01
-2.89
-4.01
-5.36
-6.91
-8.69
-10.72
-12.96
-15.29
-17.44
-18.99
-19.51
-18.64
-16.21
-12.38
-7.57
-2.35
2.66
7.01
10.46
12.95
14.52
15.29
15.33
14.73
13.57
11.93
9.93
7.72
5.49
3.49
1.91
0.86
0.26
-0.08
-0.41
-0.89
-1.56
-2.37
-3.21
-4.09
-5.08
-6.28
-7.77
-9.56
-11.61
-13.84
-16.17
-18.40
-20.22
-21.16
-20.73
-18.63
-14.85
-9.77
-4.05
1.61
6.62
10.68
13.67
15.65
16.70
16.88
16.30
15.09
13.46
11.64
9.82
8.13
6.60
5.20
3.96
2.92
2.16
1.67
1.34
1.00
0.43
-0.47
-1.70
-3.12
-4.63
-6.13
-7.64
-9.26
-11.08
-13.18
-15.49
-17.80
-19.73
-20.82
-20.64
-18.92
-15.71
-11.31
-6.22
-0.99
3.90
8.14
11.51
13.93
15.36
15.88
15.63
14.82
13.66
12.35
10.96
9.56
8.18
6.91
5.89
5.17
4.73
4.43
4.07
3.54
2.83
2.01
1.19
0.38
-0.47
-1.49
-2.79
-4.42
-6.41
-8.73
-11.34
-14.13
-16.83
-19.03
-20.26
-20.09
-18.30
-14.95
-10.35
-5.00
0.48
5.54
9.71
12.78
14.72
15.68
15.86
15.44
14.54
13.22
11.55
9.69
7.90
6.41
5.38
4.81
4.58
4.49
4.38
4.15
3.76
3.23
2.53
1.64
0.54
-0.77
-2.22
-3.72
-5.20
-6.69
-8.31
-10.21
-12.46
-14.96
-17.39
-19.24
-19.97
-19.17
-16.71
-12.81
-7.96
-2.78
2.12
6.34
9.65
12.03
13.53
14.23
14.18
13.44
12.14
10.50
8.78
7.22
5.97
5.09
4.52
4.17
3.92
3.68
3.38
2.92
2.24
1.34
0.24
-0.97
-2.20
-3.39
-4.54
-5.74
-7.11
-8.79
-10.87
-13.30
-15.85
-18.11
-19.56
-19.70
-18.25
-15.21
-10.91
-5.89
-0.71
4.15
8.38
11.77
14.23
15.71
16.26
15.97
15.00
13.55
11.79
9.89
8.01
6.28
4.84
3.79
3.12
2.80
2.68
2.63
2.51
2.25
1.76
1.03
0.05
-1.15
-2.50
-3.97
-5.54
-7.26
-9.19
-11.37
-13.73
-16.08
-18.02
-19.07
-18.80
-16.93
-13.51
-8.89
-3.63
1.66
6.46
10.47
13.53
15.60
16.70
16.84
16.12
14.69
12.81
10.77
8.82
7.10
5.66
4.52
3.66
3.14
2.97
3.10
3.37
3.51
3.28
2.56
1.41
0.05
-1.28
-2.38
-3.28
-4.13
-5.20
-6.71
-8.73
-11.14
-13.62
-15.74
-17.07
-17.25
-16.07
-13.51
-9.76
-5.18
-0.23
4.59
8.84
12.22
14.59
15.94
16.36
15.97
14.91
13.33
11.44
9.46
7.57
5.93
4.58
3.48
2.54
1.70
0.91
0.16
-0.57
-1.31
-2.13
-3.11
-4.29
-5.61
-7.02
-8.46
-9.91
-11.44
-13.14
-14.99
-16.82
-18.27
-18.88
-18.24
-16.13
-12.61
-8.03
-2.92
2.18
6.81
10.67
13.58
15.46
16.25
15.97
14.73
12.80
10.51
8.26
6.32
4.82
3.74
2.93
2.27
1.63
0.97
0.24
-0.60
-1.59
-2.71
-3.94
-5.24
-6.60
-8.02
-9.55
-11.24
-13.12
-15.23
-17.52
-19.86
-21.97
-23.42
-23.73
-22.50
-19.54
-15.02
-9.39
-3.32
2.56
7.69
11.75
14.58
16.19
16.70
16.28
15.18
13.64
11.93
10.23
8.70
7.37
6.27
5.35
4.57
3.91
3.32
2.76
2.17
1.49
0.67
-0.30
-1.38
-2.56
-3.83
-5.25
-6.91
-8.92
-11.32
-14.05
-16.88
-19.44
-21.25
-21.89
-21.03
-18.58
-14.68
-9.69
-4.10
1.59
6.87
11.39
14.92
17.36
18.75
19.15
18.69
17.54
15.89
14.01
12.14
10.50
9.18
8.15
7.32
6.59
5.91
5.27
4.67
4.04
3.29
2.30
1.03
-0.48
-2.11
-3.77
-5.43
-7.12
-8.99
-11.14
-13.55
-16.01
-18.11
-19.36
-19.32
-17.75
-14.70
-10.48
-5.53
-0.29
4.84
9.57
13.64
16.84
18.97
19.95
19.80
18.73
17.05
15.12
13.22
11.54
10.12
8.95
7.97
7.12
6.40
5.77
5.17
4.51
3.73
2.79
1.71
0.53
-0.72
-2.01
-3.37
-4.87
-6.57
-8.56
-10.87
-13.41
-15.89
-17.87
-18.84
-18.35
-16.21
-12.54
-7.73
-2.34
3.06
8.00
12.11
15.15
16.98
17.59
17.11
15.75
13.83
11.64
9.49
7.57
6.03
4.89
4.05
3.38
2.69
1.88
0.95
-0.00
-0.86
-1.61
-2.34
-3.22
-4.40
-5.93
-7.74
-9.74
-11.83
-13.98
-16.14
-18.13
-19.60
-20.03
-18.96
-16.16
-11.82
-6.44
-0.70
4.72
9.36
13.00
15.54
17.02
17.46
16.94
15.57
13.55
11.15
8.65
6.30
4.30
2.72
1.52
0.61
-0.16
-0.93
-1.78
-2.76
-3.85
-5.04
-6.28
-7.57
-8.92
-10.40
-12.09
-14.07
-16.36
-18.77
-20.97
-22.44
-22.66
-21.25
-18.11
-13.50
-7.97
-2.19
3.18
7.65
10.97
13.13
14.25
14.50
14.05
13.02
11.48
9.50
7.24
4.95
2.94
1.49
0.75
0.70
1.14
1.80
2.41
2.78
2.78
2.33
1.39
-0.08
-2.07
-4.57
-7.53
-10.86
-14.37
-17.74
-20.54
-22.27
-22.48
-20.95
-17.69
-12.95
-7.16
-0.81
5.60
11.57
16.67
20.53
22.97
23.98
23.76
22.65
21.04
19.35
17.90
16.84
16.16
15.63
14.96
13.90
12.31
10.19
7.65
4.82
1.83
-1.18
-4.03
-6.51
-8.45
-9.88
-11.07
-12.43
-14.35
-16.95
-19.96
-22.75
-24.58
-24.81
-23.13
-19.61
-14.61
-8.69
-2.40
3.74
9.30
13.94
17.39
19.48
20.21
19.67
18.13
15.91
13.41
10.96
8.88
7.33
6.38
5.95
5.85
5.82
5.62
5.10
4.22
3.07
1.75
0.35
-1.15
-2.85
-4.88
-7.39
-10.46
-14.02
-17.87
-21.59
-24.61
-26.27
-26.04
-23.65
-19.26
-13.41
-6.89
-0.51
5.12
9.68
13.14
15.63
17.33
18.40
18.95
19.02
18.65
17.86
16.69
15.17
13.35
11.27
8.98
6.58
4.22
2.07
0.23
-1.33
-2.75
-4.26
-6.00
-7.97
-10.02
-11.93
-13.57
-15.00
-16.42
-18.10
-20.17
-22.54
-24.86
-26.64
-27.30
-26.37
-23.54
-18.82
-12.49
-5.13
2.55
9.79
16.01
20.85
24.23
26.24
27.11
27.13
26.51
25.43
23.95
22.12
19.95
17.51
14.93
12.40
10.09
8.12
6.49
5.13
3.90
2.67
1.36
-0.08
-1.63
-3.21
-4.71
-6.09
-7.31
-8.44
-9.60
-10.90
-12.43
-14.15
-15.93
-17.48
-18.42
-18.31
-16.78
-13.65
-9.06
-3.44
2.58
8.31
13.20
16.91
19.35
20.59
20.80
20.22
19.10
17.65
16.04
14.30
12.43
10.41
8.29
6.18
4.24
2.59
1.24
0.15
-0.80
-1.67
-2.45
-3.15
-3.76
-4.34
-4.98
-5.75
-6.70
-7.84
-9.19
-10.81
-12.64
-14.56
-16.27
-17.40
-17.57
-16.47
-13.98
-10.18
-5.33
0.15
5.72
10.82
14.97
17.83
19.31
19.50
18.60
16.86
14.48
11.66
8.55
5.38
2.41
-0.10
-1.92
-2.95
-3.21
-2.88
-2.23
-1.54
-1.06
-0.93
-1.18
-1.74
-2.51
-3.42
-4.43
-5.55
-6.83
-8.28
-9.95
-11.80
-13.78
-15.73
-17.38
-18.35
-18.26
-16.83
-14.01
-10.06
-5.47
-0.83
3.36
6.80
9.41
11.28
12.53
13.24
13.41
13.08
12.31
11.24
10.06
8.92
7.87
6.90
5.92
4.92
3.94
3.09
2.44
1.94
1.45
0.80
-0.15
-1.38
-2.75
-4.07
-5.25
-6.35
-7.55
-9.04
-10.92
-13.16
-15.55
-17.82
-19.66
-20.75
-20.82
-19.68
-17.28
-13.76
-9.42
-4.72
-0.14
3.92
7.18
9.51
10.95
11.61
11.67
11.31
10.68
9.87
8.91
7.78
6.51
5.13
3.71
2.36
1.13
0.10
-0.72
-1.30
-1.62
-1.70
-1.65
-1.57
-1.61
-1.87
-2.36
-3.03
-3.83
-4.71
-5.72
-6.96
-8.50
-10.30
-12.16
-13.73
-14.58
-14.30
-12.66
-9.73
-5.83
-1.52
2.60
5.99
8.39
9.77
10.29
10.23
9.80
9.15
8.34
7.46
6.61
5.89
5.39
5.08
4.84
4.54
4.11
3.60
3.20
3.05
3.18
3.48
3.67
3.54
2.98
2.05
0.88
-0.39
-1.75
-3.28
-5.11
-7.34
-9.97
-12.91
-15.95
-18.76
-20.95
-22.05
-21.66
-19.56
-15.81
-10.74
-4.99
0.72
5.71
9.53
12.01
13.26
13.58
13.30
12.68
11.85
10.87
9.77
8.67
7.73
7.10
6.85
6.90
7.09
7.23
7.27
7.20
7.16
7.25
7.50
7.86
8.13
8.10
7.52
6.18
3.94
0.75
-3.26
-7.72
-12.09
-15.66
-17.72
-17.72
-15.42
-11.01
-5.07
1.57
8.05
13.73
18.31
21.83
24.49
26.50
27.89
28.56
28.37
27.21
25.14
22.34
19.05
15.51
11.93
8.44
5.18
2.20
-0.46
-2.84
-4.96
-6.85
-8.55
-10.11
-11.63
-13.22
-14.97
-16.88
-18.87
-20.76
-22.28
-23.16
-23.14
-22.00
-19.66
-16.22
-11.93
-7.21
-2.49
1.81
5.39
8.05
9.71
10.38
10.16
9.24
7.89
6.35
4.76
3.21
1.67
0.15
-1.34
-2.70
-3.83
-4.65
-5.19
-5.50
-5.69
-5.88
-6.17
-6.66
-7.47
-8.70
-10.38
-12.48
-14.78
-16.94
-18.48
-18.92
-17.91
-15.35
-11.44
-6.64
-1.53
3.31
7.47
10.75
13.05
14.37
14.67
13.93
12.22
9.74
6.87
4.01
1.51
-0.49
-2.02
-3.24
-4.30
-5.27
-6.07
-6.61
-6.77
-6.57
-6.14
-5.73
-5.57
-5.88
-6.75
-8.16
-9.94
-11.80
-13.32
-14.10
-13.78
-12.16
-9.27
-5.38
-0.93
3.53
7.47
10.50
12.40
13.18
13.03
12.21
11.02
9.73
8.53
7.54
6.79
6.25
5.85
5.50
5.14
4.75
4.32
3.86
3.36
2.78
2.08
1.19
0.05
-1.43
-3.35
-5.75
-8.53
-11.41
-13.94
-15.59
-15.92
-14.71
-12.03
-8.18
-3.61
1.20
5.82
9.89
13.10
15.27
16.32
16.33
15.51
14.14
12.51
10.85
9.28
7.83
6.47
5.16
3.86
2.58
1.36
0.22
-0.79
-1.67
-2.43
-3.11
-3.79
-4.61
-5.74
-7.29
-9.26
-11.40
-13.27
-14.34
-14.19
-12.65
-9.87
-6.26
-2.31
1.55
5.06
8.05
10.45
12.19
13.20
13.47
13.10
12.20
10.99
9.61
8.19
6.81
5.56
4.47
3.59
2.86
2.14
1.32
0.32
-0.80
-1.91
-2.86
-3.63
-4.37
-5.30
-6.61
-8.27
-10.04
-11.50
-12.20
-11.83
-10.30
-7.69
-4.27
-0.38
3.60
7.31
10.40
12.64
13.91
14.27
13.91
13.05
11.88
10.50
8.96
7.26
5.49
3.75
2.18
0.88
-0.18
-1.05
-1.85
-2.66
-3.52
-4.45
-5.47
-6.61
-7.94
-9.49
-11.26
-13.16
-14.95
-16.31
-16.93
-16.54
-15.02
-12.45
-9.11
-5.38
-1.66
1.74
4.69
7.10
9.00
10.35
11.12
11.23
10.68
9.56
8.09
6.57
5.21
4.13
3.26
2.46
1.57
0.54
-0.56
-1.61
-2.47
-3.08
-3.44
-3.71
-4.07
-4.76
-5.93
-7.62
-9.68
-11.74
-13.31
-13.93
-13.32
-11.46
-8.58
-5.06
-1.34
2.23
5.38
7.94
9.83
10.99
11.45
11.25
10.50
9.35
8.00
6.61
5.36
4.35
3.58
2.99
2.47
1.93
1.34
0.79
0.37
0.12
-0.02
-0.20
-0.64
-1.47
-2.75
-4.44
-6.37
-8.32
-10.04
-11.22
-11.55
-10.83
-9.00
-6.23
-2.87
0.64
3.91
6.66
8.78
10.24
11.09
11.37
11.15
10.48
9.52
8.40
7.26
6.19
5.23
4.37
3.59
2.87
2.22
1.63
1.10
0.58
0.02
-0.65
-1.46
-2.41
-3.51
-4.73
-6.04
-7.38
-8.68
-9.83
-10.69
-11.11
-10.90
-9.95
-8.18
-5.67
-2.62
0.64
3.75
6.35
8.23
9.30
9.59
9.22
8.30
6.94
5.33
3.66
2.14
0.90
-0.00
-0.65
-1.17
-1.66
-2.17
-2.67
-3.11
-3.47
-3.77
-4.07
-4.43
-4.93
-5.64
-6.64
-7.95
-9.49
-11.01
-12.16
-12.57
-11.99
-10.40
-7.95
-4.96
-1.73
1.47
4.42
6.93
8.81
9.87
10.03
9.34
8.01
6.37
4.74
3.38
2.41
1.79
1.37
0.96
0.42
-0.33
-1.26
-2.29
-3.28
-4.14
-4.85
-5.43
-5.99
-6.68
-7.62
-8.90
-10.49
-12.17
-13.61
-14.42
-14.27
-13.04
-10.81
-7.86
-4.55
-1.18
2.01
4.84
7.20
8.94
9.96
10.23
9.83
8.97
7.90
6.85
5.95
5.21
4.57
3.94
3.28
2.56
1.83
1.12
0.43
-0.24
-0.95
-1.78
-2.79
-4.01
-5.42
-7.01
-8.74
-10.56
-12.37
-13.93
-14.94
-15.03
-14.00
-11.82
-8.77
-5.29
-1.85
1.23
3.82
5.94
7.64
8.95
9.84
10.25
10.19
9.75
9.05
8.21
7.30
6.36
5.39
4.41
3.47
2.57
1.70
0.79
-0.22
-1.32
-2.43
-3.45
-4.28
-4.92
-5.53
-6.32
-7.51
-9.18
-11.21
-13.29
-14.97
-15.86
-15.67
-14.33
-11.93
-8.71
-5.00
-1.14
2.55
5.80
8.45
10.44
11.78
12.52
12.72
12.44
11.74
10.76
9.65
8.63
7.85
7.37
7.10
6.87
6.44
5.70
4.66
3.48
2.36
1.43
0.71
0.08
-0.61
-1.50
-2.64
-4.03
-5.65
-7.49
-9.47
-11.37
-12.83
-13.40
-12.71
-10.64
-7.39
-3.43
0.68
4.43
7.55
9.95
11.66
12.74
13.21
13.08
12.38
11.17
9.62
7.95
6.40
5.16
4.28
3.68
3.21
2.67
2.00
1.19
0.32
-0.53
-1.36
-2.22
-3.15
-4.15
-5.16
-6.14
-7.17
-8.36
-9.82
-11.49
-13.09
-14.11
-14.08
-12.67
-9.90
-6.14
-1.92
2.17
5.70
8.45
10.39
11.59
12.20
12.31
12.00
11.34
10.40
9.24
7.97
6.70
5.53
4.51
3.63
2.82
2.00
1.10
0.10
-0.92
-1.86
-2.68
-3.38
-4.11
-5.04
-6.34
-8.07
-10.17
-12.45
-14.61
-16.29
-17.10
-16.75
-15.05
-12.01
-7.91
-3.19
1.62
5.99
9.59
12.25
13.93
14.72
14.72
14.06
12.88
11.37
9.74
8.20
6.90
5.87
5.06
4.35
3.60
2.75
1.76
0.69
-0.41
-1.47
-2.49
-3.45
-4.39
-5.35
-6.40
-7.65
-9.19
-11.08
-13.20
-15.26
-16.81
-17.42
-16.74
-14.69
-11.43
-7.33
-2.86
1.56
5.59
9.03
11.71
13.54
14.48
14.59
14.01
12.95
11.66
10.30
8.97
7.69
6.47
5.32
4.30
3.44
2.75
2.12
1.49
0.81
0.09
-0.60
-1.29
-2.04
-3.01
-4.35
-6.13
-8.32
-10.75
-13.16
-15.22
-16.55
-16.78
-15.67
-13.17
-9.50
-5.06
-0.36
4.12
8.04
11.20
13.51
14.96
15.59
15.48
14.73
13.52
12.06
10.56
9.18
8.03
7.08
6.27
5.50
4.69
3.84
2.98
2.15
1.37
0.59
-0.26
-1.24
-2.36
-3.56
-4.78
-6.01
-7.28
-8.66
-10.22
-11.94
-13.69
-15.21
-16.13
-16.11
-14.88
-12.39
-8.78
-4.39
0.36
4.96
8.99
12.09
14.08
14.95
14.84
14.01
12.74
11.25
9.66
8.02
6.34
4.71
3.27
2.16
1.49
1.18
1.05
0.86
0.41
-0.37
-1.35
-2.37
-3.26
-4.00
-4.73
-5.66
-7.00
-8.77
-10.85
-12.92
-14.56
-15.38
-15.08
-13.52
-10.77
-7.06
-2.79
1.58
5.60
8.90
11.29
12.71
13.21
12.94
12.06
10.77
9.23
7.62
6.08
4.73
3.64
2.78
2.10
1.52
0.99
0.45
-0.10
-0.65
-1.24
-1.92
-2.76
-3.79
-5.01
-6.43
-8.03
-9.78
-11.63
-13.37
-14.68
-15.16
-14.43
-12.33
-8.99
-4.84
-0.44
3.70
7.29
10.25
12.62
14.41
15.48
15.65
14.80
13.01
10.64
8.15
5.99
4.37
3.22
2.30
1.34
0.21
-1.05
-2.26
-3.25
-3.91
-4.28
-4.55
-4.92
-5.59
-6.70
-8.30
-10.30
-12.54
-14.72
-16.40
-17.11
-16.44
-14.20
-10.49
-5.76
-0.63
4.25
8.41
11.64
13.94
15.38
16.05
15.96
15.11
13.63
11.73
9.68
7.78
6.12
4.71
3.41
2.09
0.72
-0.65
-1.89
-2.93
-3.75
-4.48
-5.27
-6.27
-7.59
-9.26
-11.29
-13.62
-16.14
-18.56
-20.50
-21.48
-21.06
-19.03
-15.46
-10.72
-5.37
0.01
5.00
9.33
12.90
15.61
17.38
18.12
17.80
16.53
14.62
12.45
10.34
8.50
6.96
5.66
4.49
3.40
2.38
1.39
0.41
-0.60
-1.65
-2.71
-3.72
-4.66
-5.59
-6.66
-8.09
-10.01
-12.42
-15.02
-17.28
-18.60
-18.47
-16.69
-13.39
-8.97
-3.97
1.12
5.95
10.23
13.77
16.38
17.98
18.55
18.24
17.27
15.87
14.27
12.60
10.95
9.39
7.97
6.74
5.69
4.78
3.93
3.08
2.19
1.24
0.24
-0.81
-1.94
-3.16
-4.51
-6.04
-7.81
-9.81
-11.96
-14.05
-15.73
-16.55
-16.13
-14.22
-10.87
-6.41
-1.37
3.66
8.18
11.87
14.58
16.33
17.17
17.15
16.37
14.94
13.05
10.97
8.97
7.30
6.04
5.15
4.50
3.94
3.37
2.72
1.99
1.18
0.32
-0.59
-1.51
-2.47
-3.54
-4.83
-6.48
-8.57
-11.01
-13.55
-15.75
-17.10
-17.20
-15.82
-13.03
-9.11
-4.53
0.24
4.74
8.68
11.87
14.21
15.66
16.22
15.88
14.71
12.88
10.63
8.32
6.29
4.76
3.79
3.28
3.00
2.71
2.27
1.65
0.88
0.01
-0.96
-2.08
-3.43
-5.04
-6.88
-8.86
-10.90
-12.92
-14.90
-16.88
-18.82
-20.57
-21.77
-21.98
-20.74
-17.82
-13.33
-7.72
-1.70
4.02
8.90
12.66
15.27
16.81
17.41
17.16
16.21
14.77
13.10
11.48
10.08
8.95
8.06
7.31
6.66
6.10
5.66
5.32
5.02
4.61
3.95
2.92
1.53
-0.17
-2.04
-3.93
-5.69
-7.26
-8.65
-9.99
-11.46
-13.21
-15.21
-17.20
-18.74
-19.29
-18.44
-16.02
-12.17
-7.31
-2.02
3.14
7.69
11.33
13.95
15.54
16.22
16.11
15.39
14.21
12.71
11.05
9.40
7.88
6.61
5.63
4.96
4.53
4.22
3.91
3.48
2.84
1.95
0.85
-0.40
-1.73
-3.06
-4.30
-5.41
-6.42
-7.41
-8.53
-9.93
-11.67
-13.65
-15.55
-16.93
-17.30
-16.34
-13.97
-10.37
-5.97
-1.28
3.18
7.04
10.09
12.25
13.54
14.04
13.82
13.00
11.68
9.99
8.11
6.26
4.65
3.46
2.71
2.32
2.08
1.77
1.28
0.65
-0.01
-0.59
-1.07
-1.55
-2.18
-3.07
-4.28
-5.76
-7.42
-9.18
-10.96
-12.65
-14.06
-14.91
-14.89
-13.72
-11.34
-7.88
-3.74
0.55
4.47
7.63
9.84
11.13
11.64
11.57
11.08
10.25
9.16
7.84
6.39
4.91
3.52
2.31
1.33
0.59
0.09
-0.23
-0.46
-0.75
-1.26
-2.08
-3.19
-4.46
-5.69
-6.74
-7.63
-8.52
-9.67
-11.26
-13.29
-15.53
-17.60
-19.05
-19.50
-18.70
-16.55
-13.14
-8.71
-3.64
1.59
6.48
10.59
13.64
15.53
16.34
16.32
15.72
14.76
13.57
12.20
10.67
9.05
7.48
6.13
5.12
4.45
3.98
3.53
2.93
2.16
1.33
0.54
-0.15
-0.80
-1.55
-2.55
-3.88
-5.53
-7.43
-9.51
-11.67
-13.80
-15.66
-16.91
-17.20
-16.26
-14.06
-10.80
-6.87
-2.75
1.15
4.46
6.97
8.52
9.07
8.62
7.26
5.18
2.66
-0.00
-2.48
-4.52
-5.96
-6.81
-7.18
-7.31
-7.45
-7.79
-8.39
-9.18
-9.99
-10.63
-10.98
-11.05
-11.01
-11.15
-11.79
-13.20
-15.42
-18.27
-21.32
-24.00
-25.71
-25.96
-24.54
-21.46
-17.00
-11.60
-5.76
0.04
5.41
10.03
13.69
16.25
17.63
17.83
16.95
15.22
13.00
10.74
8.88
7.66
7.10
6.99
7.04
7.08
7.17
7.60
8.70
10.68
13.46
16.68
19.79
22.18
23.30
22.74
20.28
15.93
10.00
3.03
-4.19
-10.82
-16.02
-19.13
-19.78
-17.98
-14.15
-9.06
-3.64
1.28
5.13
7.74
9.23
9.89
9.98
9.62
8.81
7.56
5.95
4.18
2.55
1.31
0.60
0.37
0.44
0.61
0.74
0.86
1.05
1.40
1.84
2.17
2.11
1.39
-0.14
-2.39
-5.10
-7.86
-10.13
-11.40
-11.22
-9.38
-5.93
-1.21
4.21
9.70
14.69
18.75
21.64
23.24
23.56
22.70
20.87
18.35
15.52
12.79
10.51
8.95
8.15
8.04
8.40
9.05
9.90
10.96
12.30
13.91
15.62
17.11
18.00
17.92
16.67
14.22
10.67
6.22
1.11
-4.36
-9.85
-14.93
-19.18
-22.19
-23.75
-23.81
-22.59
-20.48
-17.96
-15.57
-13.76
-12.83
-12.93
-13.96
-15.69
-17.74
-19.75
-21.39
-22.40
-22.62
-21.95
-20.40
-18.10
-15.35
-12.45
-9.63
-6.96
-4.31
-1.55
1.27
3.83
5.61
6.22
5.64
4.37
3.33
3.50
5.56
9.68
15.47
22.21
29.11
35.45
40.66
44.28
45.91
45.20
42.01
36.47
29.15
20.96
13.07
6.58
2.22
0.18
0.11
1.24
2.75
3.97
4.60
4.60
4.11
3.25
1.97
0.14
-2.47
-6.02
-10.57
-16.00
-22.02
-28.09
-33.48
-37.35
-38.89
-37.60
-33.44
-26.94
-19.05
-10.90
-3.47
2.61
7.14
10.23
12.13
13.12
13.47
13.44
13.30
13.31
13.60
14.17
14.80
15.21
15.14
14.53
13.44
12.10
10.71
9.39
8.11
6.76
5.20
3.31
1.00
-1.80
-5.15
-9.02
-13.20
-17.29
-20.69
-22.83
-23.33
-22.13
-19.51
-15.95
-11.96
-7.91
-4.03
-0.42
2.79
5.42
7.27
8.13
7.91
6.74
4.94
2.95
1.19
-0.04
-0.69
-0.87
-0.78
-0.56
-0.30
0.01
0.35
0.61
0.65
0.26
-0.67
-2.14
-3.99
-5.93
-7.64
-8.78
-9.08
-8.39
-6.70
-4.11
-0.83
2.85
6.57
10.03
12.95
15.15
16.55
17.14
16.95
16.09
14.70
12.94
10.96
8.86
6.64
4.27
1.73
-0.93
-3.51
-5.76
-7.43
-8.43
-8.86
-8.98
-9.09
-9.44
-10.18
-11.32
-12.77
-14.33
-15.72
-16.61
-16.69
-15.70
-13.59
-10.50
-6.75
-2.73
1.17
4.66
7.53
9.65
10.91
11.27
10.77
9.56
7.90
6.11
4.45
3.05
1.93
1.00
0.16
-0.65
-1.44
-2.18
-2.84
-3.41
-3.92
-4.39
-4.91
-5.56
-6.47
-7.74
-9.34
-11.11
-12.73
-13.84
-14.08
-13.27
-11.39
-8.62
-5.24
-1.58
2.06
5.41
8.27
10.50
12.04
12.85
12.95
12.41
11.32
9.81
8.03
6.19
4.44
2.93
1.73
0.82
0.14
-0.44
-0.97
-1.50
-2.02
-2.52
-3.05
-3.70
-4.57
-5.76
-7.27
-8.99
-10.70
-12.09
-12.85
-12.72
-11.60
-9.50
-6.65
-3.35
0.06
3.28
6.10
8.41
10.16
11.26
11.66
11.34
10.37
8.96
7.41
6.02
4.96
4.19
3.51
2.67
1.54
0.20
-1.10
-2.11
-2.74
-3.07
-3.33
-3.73
-4.37
-5.25
-6.35
-7.66
-9.24
-11.05
-12.88
-14.35
-15.02
-14.58
-13.01
-10.54
-7.55
-4.44
-1.46
1.23
3.54
5.38
6.66
7.35
7.45
7.09
6.40
5.55
4.67
3.81
2.98
2.17
1.34
0.51
-0.28
-0.97
-1.53
-1.95
-2.27
-2.55
-2.88
-3.34
-4.02
-4.95
-6.16
-7.62
-9.21
-10.73
-11.90
-12.45
-12.19
-11.04
-9.08
-6.49
-3.50
-0.36
2.73
5.57
8.03
9.94
11.19
11.71
11.50
10.63
9.27
7.63
5.93
4.37
3.09
2.16
1.53
1.10
0.74
0.35
-0.14
-0.72
-1.31
-1.81
-2.14
-2.26
-2.20
-2.03
-1.87
-1.83
-1.95
-2.19
-2.43
-2.52
-2.30
-1.66
-0.53
1.08
3.07
5.25
7.35
9.09
10.27
10.80
10.70
10.11
9.13
7.87
6.39
4.75
3.07
1.50
0.23
-0.65
-1.13
-1.32
-1.34
-1.32
-1.29
-1.26
-1.21
-1.15
-1.12
-1.18
-1.42
-1.91
-2.70
-3.83
-5.28
-6.95
-8.62
-9.99
-10.72
-10.55
-9.38
-7.35
-4.73
-1.90
0.82
3.21
5.17
6.70
7.79
8.42
8.51
8.06
7.14
5.93
4.69
3.66
2.96
2.55
2.29
2.00
1.61
1.16
0.77
0.54
0.47
0.47
0.41
0.16
-0.34
-1.06
-1.99
-3.12
-4.45
-5.94
-7.44
-8.68
-9.32
-9.03
-7.66
-5.27
-2.12
1.37
4.78
7.75
10.08
11.72
12.70
13.14
13.11
12.67
11.88
10.82
9.59
8.33
7.14
6.07
5.09
4.13
3.13
2.09
1.12
0.34
-0.19
-0.49
-0.70
-1.01
-1.57
-2.44
-3.60
-4.96
-6.43
-7.94
-9.40
-10.67
-11.59
-11.96
-11.59
-10.40
-8.38
-5.63
-2.34
1.23
4.77
7.93
10.33
11.69
11.80
10.64
8.32
5.14
1.49
-2.14
-5.34
-7.79
-9.38
-10.19
-10.43
-10.29
-9.92
-9.33
-8.49
-7.37
-6.00
-4.48
-2.96
-1.60
-0.58
-0.06
-0.18
-0.99
-2.39
-4.10
-5.74
-6.91
-7.31
-6.85
-5.65
-3.98
-2.12
-0.34
1.18
2.36
3.15
3.54
3.51
3.09
2.33
1.30
0.06
-1.34
-2.89
-4.58
-6.41
-8.35
-10.33
-12.22
-13.85
-15.07
-15.75
-15.84
-15.39
-14.56
-13.56
-12.66
-12.15
-12.25
-13.03
-14.40
-16.01
-17.35
-17.90
-17.27
-15.33
-12.28
-8.51
-4.49
-0.60
2.92
5.93
8.31
9.91
10.56
10.12
8.61
6.26
3.53
0.95
-1.02
-2.14
-2.43
-2.09
-1.40
-0.55
0.34
1.25
2.19
3.10
3.83
4.08
3.51
1.85
-0.98
-4.80
-9.11
-13.23
-16.42
-18.11
-17.94
-15.87
-12.12
-7.08
-1.23
4.86
10.66
15.71
19.63
22.24
23.48
23.39
22.14
19.93
17.08
13.97
10.95
8.33
6.27
4.77
3.71
2.93
2.31
1.85
1.56
1.48
1.56
1.71
1.74
1.44
0.64
-0.75
-2.62
-4.70
-6.57
-7.80
-8.04
-7.12
-5.08
-2.16
1.31
4.99
8.54
11.69
14.26
16.12
17.21
17.51
17.03
15.85
14.11
12.05
9.91
7.91
6.19
4.80
3.68
2.74
1.87
1.02
0.18
-0.62
-1.36
-2.03
-2.70
-3.45
-4.41
-5.70
-7.30
-9.11
-10.86
-12.19
-12.73
-12.17
-10.31
-7.18
-2.95
1.99
7.14
11.99
16.08
19.06
20.72
20.98
19.94
17.76
14.76
11.28
7.75
4.56
2.05
0.36
-0.55
-0.89
-0.95
-0.94
-0.92
-0.84
-0.56
-0.07
0.53
0.99
1.03
0.43
-0.83
-2.59
-4.55
-6.25
-7.24
-7.08
-5.47
-2.37
2.04
7.31
12.86
18.15
22.73
26.35
28.87
30.25
30.49
29.63
27.82
25.32
22.49
19.67
17.15
15.05
13.33
11.87
10.53
9.21
7.86
6.43
4.93
3.33
1.62
-0.18
-2.07
-4.04
-6.14
-8.40
-10.80
-13.24
-15.46
-17.15
-17.96
-17.62
-16.05
-13.35
-9.81
-5.84
-1.91
1.57
4.26
6.00
6.70
6.44
5.38
3.72
1.72
-0.39
-2.39
-4.15
-5.56
-6.60
-7.31
-7.77
-8.07
-8.32
-8.59
-8.93
-9.42
-10.13
-11.17
-12.61
-14.46
-16.61
-18.73
-20.44
-21.26
-20.82
-18.95
-15.73
-11.49
-6.70
-1.87
2.59
6.36
9.24
11.12
11.96
11.82
10.84
9.25
7.34
5.36
3.50
1.87
0.48
-0.73
-1.84
-2.90
-3.90
-4.80
-5.56
-6.12
-6.55
-6.98
-7.64
-8.74
-10.44
-12.66
-15.13
-17.42
-19.05
-19.64
-18.99
-17.09
-14.15
-10.50
-6.58
-2.85
0.26
2.46
3.64
3.90
3.52
2.83
2.06
1.32
0.58
-0.20
-1.05
-1.92
-2.71
-3.34
-3.77
-4.02
-4.12
-4.10
-3.97
-3.74
-3.49
-3.34
-3.49
-4.09
-5.26
-6.92
-8.78
-10.34
-11.04
-10.38
-8.18
-4.62
-0.22
4.44
8.87
12.83
16.22
19.00
20.98
21.83
21.24
19.09
15.60
11.25
6.65
2.24
-1.72
-5.25
-8.40
-11.16
-13.35
-14.74
-15.11
-14.47
-13.09
-11.47
-10.18
-9.71
-10.30
-11.88
-14.11
-16.47
-18.37
-19.31
-18.92
-17.06
-13.80
-9.36
-4.12
1.46
6.87
11.66
15.44
17.98
19.15
19.01
17.73
15.59
12.95
10.19
7.69
5.74
4.48
3.90
3.83
4.04
4.29
4.48
4.61
4.77
5.06
5.50
5.97
6.30
6.31
5.88
5.09
4.18
3.50
3.42
4.23
6.03
8.76
12.19
16.00
19.80
23.21
25.87
27.50
27.96
27.29
25.71
23.52
21.05
18.50
15.98
13.52
11.13
8.89
6.88
5.17
3.73
2.47
1.25
-0.07
-1.60
-3.33
-5.29
-7.43
-9.79
-12.40
-15.30
-18.43
-21.61
-24.47
-26.51
-27.22
-26.22
-23.43
-19.07
-13.64
-7.75
-1.98
3.23
7.63
11.13
13.72
15.42
16.22
16.14
15.21
13.56
11.46
9.20
7.04
5.15
3.47
1.91
0.33
-1.22
-2.55
-3.43
-3.68
-3.37
-2.79
-2.34
-2.38
-3.06
-4.34
-6.02
-7.81
-9.40
-10.43
-10.54
-9.44
-7.04
-3.52
0.66
4.91
8.69
11.66
13.71
14.88
15.28
15.00
14.19
13.03
11.78
10.71
10.06
9.91
10.20
10.77
11.41
11.95
12.26
12.28
11.94
11.22
10.14
8.71
6.95
4.88
2.48
-0.30
-3.48
-6.95
-10.42
-13.44
-15.46
-16.07
-15.16
-12.97
-9.98
-6.75
-3.74
-1.21
0.78
2.24
3.16
3.49
3.18
2.24
0.79
-0.96
-2.68
-4.11
-5.05
-5.49
-5.57
-5.53
-5.67
-6.19
-7.15
-8.44
-9.88
-11.26
-12.50
-13.65
-14.89
-16.46
-18.47
-20.79
-23.05
-24.66
-25.01
-23.69
-20.61
-16.05
-10.55
-4.79
0.64
5.35
9.13
11.95
13.85
14.90
15.16
14.75
13.79
12.45
10.92
9.33
7.76
6.27
4.83
3.43
2.05
0.67
-0.67
-1.95
-3.14
-4.24
-5.38
-6.70
-8.44
-10.78
-13.78
-17.29
-20.94
-24.19
-26.46
-27.23
-26.22
-23.44
-19.16
-13.86
-8.04
-2.19
3.30
8.12
12.03
14.84
16.49
17.03
16.66
15.64
14.25
12.69
11.13
9.65
8.29
7.04
5.79
4.37
2.62
0.48
-1.99
-4.54
-6.92
-8.95
-10.67
-12.28
-14.09
-16.36
-19.13
-22.21
-25.22
-27.65
-29.06
-29.07
-27.47
-24.22
-19.44
-13.50
-6.97
-0.51
5.27
9.97
13.46
15.88
17.43
18.26
18.37
17.66
16.12
13.92
11.41
9.02
7.05
5.65
4.72
4.07
3.55
3.08
2.69
2.42
2.27
2.15
1.94
1.49
0.72
-0.46
-2.12
-4.31
-7.07
-10.29
-13.66
-16.70
-18.78
-19.35
-18.07
-15.01
-10.59
-5.55
-0.69
3.33
6.14
7.71
8.25
8.08
7.53
6.85
6.19
5.65
5.31
5.24
5.44
5.81
6.20
6.47
6.53
6.43
6.29
6.24
6.37
6.67
7.03
7.26
7.15
6.53
5.23
3.13
0.20
-3.50
-7.71
-11.92
-15.47
-17.62
-17.79
-15.75
-11.72
-6.31
-0.33
5.43
10.42
14.39
17.29
19.18
20.16
20.30
19.75
18.76
17.65
16.67
15.95
15.44
14.96
14.34
13.52
12.53
11.48
10.44
9.38
8.25
7.01
5.65
4.20
2.69
1.10
-0.67
-2.71
-5.08
-7.76
-10.59
-13.28
-15.45
-16.63
-16.45
-14.67
-11.32
-6.70
-1.28
4.35
9.62
14.09
17.46
19.59
20.54
20.45
19.55
18.03
16.02
13.61
10.87
7.93
4.98
2.25
-0.13
-2.13
-3.89
-5.60
-7.45
-9.47
-11.52
-13.37
-14.83
-15.85
-16.55
-17.15
-17.85
-18.74
-19.79
-20.86
-21.68
-21.98
-21.42
-19.75
-16.85
-12.83
-8.07
-3.11
1.48
5.31
8.22
10.27
11.61
12.31
12.35
11.61
10.05
7.76
5.00
2.15
-0.45
-2.55
-4.10
-5.19
-5.98
-6.60
-7.16
-7.70
-8.26
-8.92
-9.77
-10.87
-12.27
-13.95
-15.86
-17.96
-20.16
-22.30
-24.15
-25.39
-25.74
-25.00
-23.16
-20.34
-16.79
-12.76
-8.51
-4.26
-0.26
3.27
6.13
8.20
9.39
9.68
9.01
7.39
4.91
1.80
-1.54
-4.65
-7.15
-8.83
-9.70
-9.90
-9.62
-9.02
-8.18
-7.22
-6.34
-5.83
-6.02
-7.13
-9.13
-11.66
-14.12
-15.82
-16.18
-14.81
-11.60
-6.71
-0.46
6.65
14.08
21.31
27.91
33.61
38.27
41.76
43.95
44.63
43.66
41.02
36.99
32.09
26.96
22.18
18.11
14.83
12.18
9.88
7.69
5.38
2.81
-0.12
-3.44
-7.06
-10.75
-14.17
-16.99
-19.01
-20.28
-21.04
-21.60
-22.10
-22.39
-22.05
-20.57
-17.56
-12.96
-7.07
-0.46
6.18
12.26
17.40
21.41
24.29
26.10
26.89
26.72
25.65
23.79
21.34
18.53
15.61
12.81
10.31
8.23
6.68
5.68
5.20
5.09
5.08
4.88
4.24
3.06
1.36
-0.70
-3.01
-5.48
-8.12
-10.92
-13.78
-16.44
-18.52
-19.59
-19.32
-17.61
-14.59
-10.59
-6.04
-1.34
3.15
7.17
10.51
13.00
14.52
15.11
14.92
14.27
13.50
12.89
12.56
12.44
12.38
12.21
11.83
11.18
10.19
8.75
6.69
3.93
0.51
-3.33
-7.22
-10.76
-13.62
-15.67
-16.89
-17.35
-17.11
-16.16
-14.49
-12.12
-9.21
-6.10
-3.25
-1.10
0.13
0.52
0.45
0.45
1.03
2.42
4.52
6.98
9.29
10.96
11.66
11.25
9.79
7.50
4.69
1.70
-1.08
-3.30
-4.61
-4.81
-3.86
-2.01
0.30
2.48
3.94
4.26
3.31
1.20
-1.71
-4.93
-7.91
-10.11
-11.05
-10.47
-8.34
-4.92
-0.70
3.74
7.86
11.31
13.95
15.83
17.02
17.60
17.50
16.70
15.17
13.07
10.69
8.39
6.48
5.13
4.28
3.72
3.21
2.60
1.88
1.20
0.71
0.47
0.41
0.29
-0.20
-1.35
-3.29
-5.92
-8.90
-11.67
-13.66
-14.36
-13.54
-11.31
-8.06
-4.38
-0.86
2.06
4.10
5.19
5.38
4.79
3.59
1.98
0.21
-1.48
-2.85
-3.77
-4.27
-4.53
-4.89
-5.62
-6.90
-8.58
-10.31
-11.57
-11.94
-11.27
-9.69
-7.63
-5.64
-4.23
-3.75
-4.29
-5.69
-7.55
-9.26
-10.22
-9.91
-8.14
-5.04
-1.12
2.99
6.69
9.59
11.62
12.88
13.58
13.86
13.70
13.01
11.70
9.75
7.29
4.56
1.87
-0.55
-2.50
-3.89
-4.73
-5.05
-4.95
-4.55
-4.04
-3.62
-3.52
-3.89
-4.77
-6.04
-7.41
-8.52
-9.00
-8.63
-7.33
-5.23
-2.57
0.35
3.24
5.83
7.93
9.37
10.08
10.03
9.28
7.97
6.35
4.66
3.14
1.95
1.16
0.73
0.54
0.41
0.16
-0.30
-0.98
-1.81
-2.69
-3.57
-4.48
-5.51
-6.78
-8.34
-10.14
-12.01
-13.67
-14.78
-15.05
-14.30
-12.54
-9.95
-6.88
-3.68
-0.66
2.01
4.21
5.87
6.87
7.15
6.73
5.77
4.57
3.42
2.49
1.77
1.10
0.28
-0.75
-1.90
-3.01
-3.93
-4.62
-5.18
-5.77
-6.49
-7.29
-8.00
-8.43
-8.43
-7.96
-7.11
-5.97
-4.58
-2.91
-0.94
1.29
3.62
5.76
7.42
8.44
8.88
8.96
8.93
8.92
8.86
8.53
7.74
6.42
4.70
2.85
1.14
-0.24
-1.20
-1.70
-1.78
-1.49
-0.94
-0.31
0.16
0.26
-0.13
-1.04
-2.35
-3.84
-5.18
-5.99
-5.94
-4.86
-2.88
-0.45
1.83
3.37
3.93
3.68
3.16
2.99
3.61
5.07
7.05
9.06
10.68
11.68
12.03
11.82
11.16
10.19
9.16
8.36
8.10
8.53
9.50
10.54
11.04
10.45
8.58
5.68
2.41
-0.34
-1.77
-1.34
1.05
5.11
10.30
15.98
21.57
26.59
30.65
33.42
34.61
34.12
32.10
28.93
25.25
21.67
18.62
16.27
14.55
13.25
12.16
11.12
10.06
8.92
7.63
6.12
4.31
2.24
-0.02
-2.32
-4.55
-6.63
-8.57
-10.44
-12.26
-13.98
-15.42
-16.31
-16.40
-15.57
-13.86
-11.51
-8.90
-6.46
-4.57
-3.54
-3.48
-4.37
-5.99
-7.97
-9.92
-11.44
-12.30
-12.44
-12.00
-11.24
-10.41
-9.74
-9.34
-9.22
-9.38
-9.77
-10.36
-11.17
-12.24
-13.59
-15.18
-16.91
-18.54
-19.76
-20.23
-19.65
-17.88
-14.94
-11.08
-6.70
-2.31
1.63
4.74
6.80
7.79
7.78
6.97
5.55
3.72
1.65
-0.47
-2.50
-4.31
-5.87
-7.21
-8.37
-9.43
-10.37
-11.11
-11.56
-11.70
-11.61
-11.51
-11.68
-12.29
-13.37
-14.73
-16.06
-16.99
-17.22
-16.58
-15.07
-12.80
-9.93
-6.64
-3.12
0.46
3.87
6.86
9.13
10.48
10.75
9.93
8.15
5.61
2.58
-0.67
-3.87
-6.79
-9.21
-10.96
-11.94
-12.16
-11.77
-11.06
-10.44
-10.32
-11.01
-12.59
-14.87
-17.40
-19.60
-20.85
-20.69
-18.92
-15.63
-11.16
-6.10
-1.08
3.36
6.81
9.14
10.38
10.68
10.29
9.43
8.39
7.45
6.80
6.58
6.72
6.98
7.03
6.60
5.57
4.04
2.26
0.56
-0.82
-1.77
-2.36
-2.79
-3.35
-4.22
-5.44
-6.80
-7.92
-8.35
-7.72
-5.92
-3.04
0.59
4.61
8.73
12.74
16.51
19.88
22.61
24.40
24.97
24.18
22.07
18.90
15.01
10.80
6.60
2.72
-0.55
-2.99
-4.40
-4.76
-4.18
-2.92
-1.32
0.33
1.77
2.85
3.39
3.24
2.24
0.33
-2.36
-5.45
-8.34
-10.37
-11.02
-10.02
-7.49
-3.83
0.38
4.61
8.36
11.30
13.16
13.79
13.19
11.56
9.33
7.07
5.35
4.61
4.99
6.40
8.55
11.09
13.72
16.23
18.49
20.41
21.87
22.70
22.73
21.86
20.09
17.56
14.51
11.16
7.68
4.18
0.69
-2.75
-6.00
-8.84
-11.01
-12.27
-12.48
-11.57
-9.60
-6.72
-3.17
0.69
4.44
7.60
9.81
10.84
10.67
9.43
7.37
4.80
2.03
-0.63
-2.86
-4.46
-5.38
-5.79
-6.05
-6.53
-7.46
-8.76
-10.03
-10.74
-10.42
-8.97
-6.67
-4.16
-2.16
-1.32
-2.02
-4.38
-8.24
-13.22
-18.73
-24.01
-28.20
-30.50
-30.37
-27.65
-22.59
-15.85
-8.28
-0.89
5.38
9.72
11.67
11.14
8.49
4.43
-0.17
-4.49
-7.93
-10.17
-11.13
-10.98
-10.01
-8.58
-7.01
-5.56
-4.29
-3.15
-2.01
-0.80
0.38
1.30
1.66
1.27
0.15
-1.44
-3.07
-4.26
-4.67
-4.14
-2.66
-0.43
2.30
5.24
8.11
10.69
12.77
14.23
14.98
15.03
14.52
13.68
12.82
12.18
11.83
11.65
11.37
10.76
9.78
8.60
7.60
7.12
7.33
8.13
9.19
10.09
10.47
10.07
8.82
6.74
4.00
0.83
-2.41
-5.33
-7.53
-8.74
-8.77
-7.63
-5.44
-2.47
0.89
4.21
7.04
9.04
10.02
9.95
8.91
7.06
4.55
1.53
-1.80
-5.19
-8.28
-10.76
-12.38
-13.06
-12.91
-12.17
-11.13
-10.02
-8.98
-8.07
-7.33
-6.80
-6.55
-6.59
-6.85
-7.15
-7.22
-6.83
-5.82
-4.14
-1.92
0.66
3.37
5.98
8.34
10.37
12.02
13.29
14.11
14.37
13.95
12.80
10.99
8.77
6.46
4.41
2.86
1.92
1.56
1.61
1.87
2.11
2.11
1.70
0.77
-0.71
-2.72
-5.15
-7.88
-10.70
-13.35
-15.51
-16.88
-17.24
-16.51
-14.82
-12.46
-9.82
-7.22
-4.86
-2.73
-0.70
1.31
3.22
4.83
5.85
6.08
5.55
4.54
3.42
2.56
2.17
2.28
2.77
3.49
4.29
5.05
5.62
5.91
5.79
5.20
4.20
2.91
1.55
0.33
-0.53
-0.87
-0.54
0.52
2.30
4.66
7.34
10.00
12.28
13.91
14.75
14.85
14.32
13.34
12.07
10.63
9.13
7.65
6.25
4.93
3.64
2.26
0.70
-1.08
-3.02
-5.00
-6.87
-8.47
-9.69
-10.44
-10.71
-10.47
-9.80
-8.82
-7.70
-6.64
-5.76
-5.15
-4.78
-4.64
-4.68
-4.87
-5.18
-5.57
-5.97
-6.35
-6.67
-6.91
-7.08
-7.15
-7.12
-7.00
-6.79
-6.46
-5.94
-5.16
-4.04
-2.61
-1.00
0.60
1.97
2.97
3.51
3.53
2.92
1.53
-0.73
-3.73
-7.02
-9.92
-11.67
-11.69
-9.81
-6.32
-1.79
3.06
7.60
11.43
14.29
16.03
16.62
16.06
14.48
12.11
9.23
6.13
3.05
0.13
-2.56
-4.95
-6.96
-8.54
-9.68
-10.45
-11.01
-11.56
-12.25
-13.16
-14.27
-15.56
-16.97
-18.50
-20.11
-21.71
-23.10
-24.00
-24.10
-23.15
-21.04
-17.83
-13.81
-9.37
-4.99
-1.10
1.94
3.89
4.72
4.60
3.89
3.13
2.97
4.06
6.89
11.65
18.04
25.36
32.54
38.42
42.08
43.00
41.18
36.99
31.00
23.73
15.69
7.31
-0.93
-8.52
-15.05
-20.29
-24.24
-27.09
-29.03
-30.11
-30.19
-29.06
-26.57
-22.84
-18.25
-13.38
-8.77
-4.84
-1.74
0.55
2.14
3.14
3.57
3.44
2.77
1.66
0.28
-1.16
-2.49
-3.55
-4.24
-4.48
-4.19
-3.39
-2.19
-0.79
0.51
1.45
1.88
1.82
1.39
0.74
-0.01
-0.83
-1.77
-2.89
-4.27
-5.89
-7.72
-9.64
-11.43
-12.80
-13.38
-12.83
-10.93
-7.71
-3.46
1.31
5.99
10.05
13.11
15.06
16.02
16.23
15.98
15.52
14.98
14.36
13.64
12.78
11.81
10.84
9.96
9.23
8.57
7.82
6.82
5.54
4.12
2.82
1.91
1.53
1.60
1.87
2.04
1.91
1.36
0.42
-0.86
-2.43
-4.22
-6.08
-7.73
-8.82
-9.00
-8.09
-6.09
-3.24
0.12
3.65
7.04
10.09
12.65
14.65
16.07
16.87
17.04
16.61
15.65
14.30
12.73
11.10
9.50
7.97
6.47
4.94
3.32
1.60
-0.23
-2.17
-4.18
-6.22
-8.19
-9.93
-11.34
-12.39
-13.12
-13.67
-14.13
-14.47
-14.56
-14.11
-12.86
-10.69
-7.67
-4.08
-0.29
3.36
6.66
9.50
11.81
13.49
14.40
14.44
13.67
12.29
10.58
8.80
7.12
5.56
4.06
2.53
0.90
-0.89
-2.85
-4.93
-7.03
-8.99
-10.64
-11.85
-12.60
-12.99
-13.16
-13.33
-13.65
-14.25
-15.15
-16.34
-17.69
-18.97
-19.88
-20.07
-19.26
-17.34
-14.35
-10.60
-6.53
-2.62
0.73
3.27
4.98
5.94
6.31
6.16
5.57
4.58
3.34
2.14
1.33
1.20
1.87
3.21
4.91
6.66
8.29
9.79
11.21
12.53
13.55
13.94
13.36
11.62
8.75
4.99
0.65
-3.86
-8.06
-11.35
-13.08
-12.70
-10.05
-5.48
0.11
5.59
9.83
12.14
12.30
10.67
7.88
4.67
1.64
-0.80
-2.50
-3.47
-3.84
-3.76
-3.38
-2.79
-2.11
-1.42
-0.82
-0.36
-0.05
0.15
0.31
0.50
0.72
0.90
0.88
0.46
-0.55
-2.24
-4.55
-7.25
-9.91
-11.98
-12.79
-11.77
-8.58
-3.38
3.19
10.05
16.02
20.13
21.94
21.67
20.04
17.99
16.34
15.50
15.42
15.63
15.54
14.61
12.66
9.89
6.78
3.88
1.52
-0.33
-2.05
-4.22
-7.44
-12.06
-18.02
-24.85
-31.63
-37.15
-40.06
-39.24
-34.13
-25.18
-13.88
-2.53
6.50
11.54
12.35
10.12
6.88
4.91
5.21
7.53
10.76
13.73
15.93
17.62
19.48
21.90
24.61
26.61
26.82
24.69
20.53
15.51
11.17
8.89
9.41
12.74
18.25
24.98
31.89
38.06
42.71
45.26
45.47
43.61
40.71
38.36
38.33
41.88
48.99
58.08
66.37
70.88
69.70
62.86
52.27
40.95
31.52
25.14
21.08
17.43
12.18
4.30
-5.87
-17.05
-27.84
-37.48
-46.10
-54.31
-62.53
-70.54
-77.38
-81.96
-83.65
-82.81
-80.76
-79.23
-79.48
-81.74
-85.08
-87.89
-88.67
-86.69
-82.17
-75.99
-69.04
-61.81
-54.25
-46.14
-37.44
-28.61
-20.48
-13.94
-9.47
-6.84
-5.23
-3.52
-0.75
3.36
8.29
12.90
15.89
16.36
14.22
10.26
5.73
1.86
-0.59
-1.51
-1.23
-0.20
1.30
3.16
5.27
7.37
8.95
9.51
8.72
6.78
4.28
2.08
0.97
1.32
3.08
5.82
8.97
12.01
14.65
16.83
18.61
20.09
21.24
21.91
21.90
21.07
19.45
17.28
14.91
12.81
11.38
10.87
11.32
12.50
13.94
15.09
15.46
14.75
13.00
10.49
7.60
4.63
1.70
-1.24
-4.25
-7.19
-9.71
-11.25
-11.30
-9.56
-6.11
-1.37
4.01
9.35
14.09
17.89
20.61
22.30
23.09
23.18
22.75
22.01
21.10
20.19
19.38
18.73
18.21
17.68
17.07
16.29
15.37
14.31
13.02
11.30
8.79
5.24
0.61
-4.78
-10.32
-15.27
-18.93
-20.86
-20.85
-18.97
-15.44
-10.62
-5.03
0.65
5.69
9.36
11.13
10.85
8.76
5.45
1.72
-1.68
-4.22
-5.71
-6.26
-6.22
-5.96
-5.83
-6.04
-6.65
-7.54
-8.51
-9.27
-9.58
-9.31
-8.47
-7.23
-5.90
-4.83
-4.41
-4.91
-6.46
-9.00
-12.16
-15.39
-18.05
-19.53
-19.48
-17.86
-14.93
-11.14
-7.06
-3.11
0.39
3.34
5.74
7.65
9.16
10.31
11.14
11.66
11.85
11.63
10.86
9.41
7.22
4.36
1.10
-2.21
-5.27
-7.88
-10.08
-12.05
-14.00
-16.12
-18.37
-20.57
-22.35
-23.27
-22.86
-20.86
-17.20
-12.16
-6.21
-0.00
5.86
10.92
14.87
17.59
19.07
19.32
18.44
16.60
14.06
11.21
8.39
5.91
3.92
2.44
1.39
0.66
0.13
-0.28
-0.61
-0.91
-1.26
-1.71
-2.36
-3.30
-4.59
-6.31
-8.41
-10.78
-13.16
-15.20
-16.48
-16.61
-15.30
-12.46
-8.23
-3.03
2.58
7.95
12.59
16.22
18.80
20.42
21.19
21.12
20.26
18.69
16.65
14.49
12.56
11.05
9.91
8.94
7.84
6.39
4.54
2.37
0.00
-2.40
-4.73
-6.94
-9.01
-10.97
-12.84
-14.61
-16.20
-17.39
-17.87
-17.33
-15.53
-12.43
-8.14
-2.99
2.60
8.14
13.17
17.33
20.38
22.26
23.07
22.98
22.20
20.87
19.14
17.11
14.93
12.79
10.86
9.23
7.86
6.65
5.45
4.16
2.77
1.40
0.17
-0.80
-1.48
-1.91
-2.23
-2.63
-3.29
-4.39
-5.93
-7.79
-9.65
-11.13
-11.84
-11.52
-10.12
-7.78
-4.81
-1.56
1.57
4.25
6.22
7.34
7.50
6.73
5.18
3.10
0.86
-1.15
-2.61
-3.38
-3.55
-3.35
-3.07
-2.91
-2.89
-2.92
-2.93
-2.88
-2.92
-3.22
-3.92
-5.04
-6.53
-8.28
-10.25
-12.40
-14.62
-16.67
-18.20
-18.79
-18.23
-16.57
-14.15
-11.46
-8.95
-6.84
-5.14
-3.72
-2.39
-1.10
0.17
1.38
2.50
3.52
4.42
5.13
5.49
5.33
4.53
3.11
1.21
-0.93
-3.03
-4.86
-6.29
-7.26
-7.81
-8.04
-8.11
-8.21
-8.50
-9.06
-9.79
-10.47
-10.74
-10.24
-8.77
-6.31
-3.03
0.75
4.72
8.57
12.05
14.94
17.05
18.24
18.49
17.91
16.80
15.50
14.35
13.53
12.99
12.50
11.73
10.39
8.35
5.71
2.74
-0.16
-2.65
-4.51
-5.68
-6.32
-6.66
-7.00
-7.55
-8.38
-9.37
-10.27
-10.68
-10.25
-8.71
-6.02
-2.37
1.85
6.11
9.96
13.04
15.21
16.47
16.92
16.68
15.87
14.63
13.13
11.62
10.27
9.17
8.23
7.26
6.07
4.55
2.76
0.88
-0.92
-2.52
-3.92
-5.17
-6.37
-7.58
-8.90
-10.39
-12.10
-13.97
-15.78
-17.13
-17.49
-16.45
-13.81
-9.73
-4.67
0.72
5.87
10.33
13.90
16.52
18.19
18.94
18.77
17.77
16.10
14.04
11.86
9.81
8.02
6.49
5.15
3.89
2.67
1.49
0.43
-0.46
-1.16
-1.75
-2.39
-3.27
-4.53
-6.21
-8.19
-10.18
-11.83
-12.76
-12.67
-11.38
-8.93
-5.47
-1.33
3.07
7.30
11.00
13.90
15.82
16.69
16.54
15.49
13.79
11.74
9.67
7.83
6.30
5.02
3.79
2.41
0.82
-0.92
-2.62
-4.07
-5.17
-5.96
-6.58
-7.25
-8.13
-9.31
-10.80
-12.45
-14.05
-15.28
-15.82
-15.34
-13.68
-10.85
-7.11
-2.90
1.32
5.16
8.34
10.75
12.37
13.16
13.10
12.21
10.54
8.30
5.75
3.20
0.88
-1.08
-2.70
-4.06
-5.26
-6.34
-7.31
-8.11
-8.73
-9.18
-9.52
-9.94
-10.63
-11.79
-13.44
-15.37
-17.16
-18.27
-18.20
-16.68
-13.71
-9.57
-4.69
0.43
5.34
9.65
13.10
15.50
16.77
16.90
16.02
14.32
12.05
9.53
7.03
4.75
2.78
1.08
-0.48
-2.00
-3.50
-4.87
-5.99
-6.76
-7.25
-7.66
-8.29
-9.36
-10.98
-13.08
-15.43
-17.71
-19.51
-20.43
-20.12
-18.35
-15.10
-10.61
-5.33
0.19
5.42
9.96
13.57
16.11
17.51
17.74
16.82
14.92
12.34
9.47
6.70
4.30
2.37
0.88
-0.33
-1.38
-2.33
-3.16
-3.79
-4.19
-4.44
-4.72
-5.33
-6.55
-8.53
-11.26
-14.48
-17.77
-20.63
-22.56
-23.15
-22.15
-19.50
-15.38
-10.17
-4.38
1.41
6.71
11.16
14.55
16.84
18.09
18.41
17.96
16.90
15.40
13.63
11.80
10.07
8.56
7.27
6.13
5.01
3.76
2.34
0.78
-0.79
-2.24
-3.51
-4.66
-5.85
-7.30
-9.17
-11.48
-14.12
-16.78
-19.00
-20.26
-20.08
-18.19
-14.59
-9.63
-3.87
2.01
7.45
12.05
15.66
18.26
19.93
20.72
20.71
19.96
18.60
16.83
14.89
13.02
11.37
10.00
8.86
7.85
6.87
5.83
4.68
3.41
2.04
0.66
-0.67
-1.89
-3.07
-4.35
-5.97
-8.15
-10.91
-14.05
-17.04
-19.21
-19.90
-18.72
-15.63
-11.01
-5.49
0.24
5.68
10.49
14.50
17.61
19.67
20.54
20.21
18.83
16.76
14.40
12.09
10.02
8.25
6.76
5.52
4.52
3.68
2.91
2.09
1.13
0.03
-1.14
-2.27
-3.35
-4.44
-5.69
-7.26
-9.27
-11.67
-14.26
-16.66
-18.35
-18.78
-17.55
-14.55
-10.04
-4.57
1.14
6.44
10.90
14.32
16.67
18.01
18.42
17.98
16.80
15.08
13.10
11.09
9.25
7.66
6.31
5.15
4.13
3.23
2.42
1.63
0.83
-0.01
-0.91
-1.87
-2.91
-4.13
-5.62
-7.50
-9.79
-12.38
-14.98
-17.14
-18.33
-18.12
-16.25
-12.81
-8.18
-2.95
2.26
6.95
10.84
13.86
16.04
17.45
18.05
17.81
16.71
14.87
12.52
10.01
7.66
5.69
4.16
3.01
2.07
1.19
0.30
-0.60
-1.44
-2.19
-2.84
-3.54
-4.45
-5.73
-7.48
-9.67
-12.11
-14.52
-16.52
-17.71
-17.78
-16.49
-13.82
-9.93
-5.14
0.08
5.23
9.83
13.51
15.98
17.13
16.99
15.75
13.74
11.34
8.88
6.59
4.59
2.86
1.33
-0.05
-1.31
-2.43
-3.37
-4.12
-4.72
-5.25
-5.86
-6.67
-7.81
-9.33
-11.23
-13.42
-15.68
-17.70
-19.07
-19.34
-18.18
-15.44
-11.30
-6.19
-0.73
4.48
8.92
12.28
14.41
15.35
15.22
14.25
12.67
10.76
8.72
6.69
4.74
2.90
1.20
-0.35
-1.75
-3.03
-4.22
-5.29
-6.20
-6.89
-7.40
-7.89
-8.67
-10.01
-12.02
-14.54
-17.15
-19.25
-20.28
-19.83
-17.76
-14.19
-9.46
-4.08
1.35
6.27
10.26
13.12
14.83
15.52
15.35
14.46
12.97
11.04
8.86
6.68
4.70
3.05
1.74
0.66
-0.30
-1.25
-2.20
-3.12
-3.96
-4.66
-5.30
-6.03
-7.12
-8.80
-11.14
-13.95
-16.76
-18.92
-19.82
-19.07
-16.62
-12.76
-8.01
-2.92
2.06
6.60
10.52
13.67
15.92
17.17
17.37
16.62
15.16
13.31
11.43
9.72
8.24
6.91
5.56
4.08
2.44
0.78
-0.72
-1.88
-2.65
-3.14
-3.58
-4.28
-5.52
-7.48
-10.16
-13.37
-16.71
-19.59
-21.37
-21.51
-19.71
-16.06
-11.02
-5.27
0.44
5.54
9.70
12.83
14.99
16.28
16.80
16.61
15.78
14.45
12.80
11.07
9.47
8.14
7.08
6.17
5.26
4.24
3.09
1.95
0.97
0.23
-0.37
-1.06
-2.13
-3.76
-6.00
-8.71
-11.64
-14.53
-17.04
-18.81
-19.47
-18.64
-16.18
-12.20
-7.15
-1.64
3.71
8.44
12.33
15.35
17.51
18.84
19.33
18.98
17.87
16.20
14.23
12.25
10.50
9.12
8.14
7.52
7.11
6.75
6.29
5.64
4.79
3.79
2.74
1.70
0.67
-0.39
-1.64
-3.23
-5.29
-7.86
-10.83
-13.92
-16.73
-18.77
-19.59
-18.85
-16.44
-12.51
-7.45
-1.81
3.78
8.79
12.83
15.73
17.52
18.37
18.50
18.15
17.49
16.67
15.79
14.89
13.97
13.00
12.00
11.03
10.14
9.43
8.90
8.51
8.13
7.66
7.00
6.11
4.99
3.65
2.13
0.45
-1.34
-3.21
-5.14
-7.17
-9.37
-11.74
-14.15
-16.30
-17.73
-17.98
-16.73
-13.95
-9.95
-5.25
-0.47
3.91
7.58
10.42
12.45
13.70
14.18
13.89
12.86
11.22
9.20
7.06
5.05
3.35
2.00
0.96
0.17
-0.45
-0.93
-1.26
-1.48
-1.65
-1.88
-2.31
-3.00
-3.95
-5.06
-6.18
-7.26
-8.33
-9.52
-10.99
-12.81
-14.86
-16.85
-18.35
-18.93
-18.26
-16.19
-12.82
-8.46
-3.60
1.24
5.56
9.01
11.42
12.81
13.27
13.01
12.22
11.10
9.80
8.46
7.15
5.90
4.74
3.71
2.85
2.22
1.81
1.51
1.17
0.61
-0.30
-1.57
-3.11
-4.78
-6.45
-8.03
-9.48
-10.80
-12.03
-13.21
-14.46
-15.89
-17.59
-19.49
-21.32
-22.64
-22.91
-21.73
-18.98
-14.89
-10.01
-4.98
-0.36
3.48
6.45
8.57
9.90
10.45
10.19
9.10
7.30
5.02
2.55
0.16
-2.00
-3.94
-5.71
-7.33
-8.72
-9.72
-10.19
-10.07
-9.45
-8.54
-7.54
-6.60
-5.74
-4.90
-3.98
-2.97
-1.94
-1.11
-0.72
-0.99
-2.04
-3.85
-6.22
-8.80
-11.10
-12.58
-12.75
-11.33
-8.35
-4.23
0.40
4.85
8.62
11.48
13.50
14.88
15.81
16.38
16.55
16.24
15.43
14.21
12.71
11.09
9.45
7.85
6.35
5.09
4.25
4.05
4.57
5.72
7.22
8.66
9.65
9.96
9.55
8.48
6.92
4.95
2.66
0.10
-2.64
-5.44
-8.19
-10.83
-13.38
-15.89
-18.30
-20.36
-21.71
-21.91
-20.68
-18.00
-14.08
-9.35
-4.22
0.94
5.83
10.21
13.84
16.50
18.10
18.68
18.48
17.82
16.96
16.05
15.10
14.09
12.98
11.79
10.55
9.33
8.17
7.13
6.27
5.62
5.20
4.91
4.60
4.07
3.14
1.75
-0.04
-2.05
-4.07
-5.90
-7.48
-8.85
-10.20
-11.78
-13.76
-16.17
-18.78
-21.15
-22.74
-23.04
-21.72
-18.74
-14.33
-8.95
-3.19
2.35
7.15
10.87
13.40
14.83
15.38
15.32
14.95
14.45
13.97
13.52
13.04
12.40
11.50
10.28
8.84
7.40
6.20
5.42
5.05
4.98
4.98
4.89
4.59
4.05
3.23
2.09
0.57
-1.27
-3.31
-5.32
-7.15
-8.80
-10.43
-12.26
-14.40
-16.69
-18.70
-19.80
-19.46
-17.39
-13.70
-8.85
-3.48
1.79
6.44
10.19
12.96
14.81
15.88
16.33
16.29
15.87
15.15
14.18
12.94
11.45
9.75
7.93
6.18
4.70
3.62
2.91
2.44
1.96
1.29
0.39
-0.65
-1.70
-2.67
-3.61
-4.65
-5.93
-7.49
-9.28
-11.20
-13.19
-15.16
-17.02
-18.52
-19.25
-18.78
-16.82
-13.35
-8.68
-3.36
1.96
6.75
10.62
13.41
15.08
15.75
15.64
14.96
13.93
12.64
11.10
9.28
7.23
5.11
3.17
1.63
0.59
-0.03
-0.45
-0.92
-1.56
-2.44
-3.50
-4.65
-5.88
-7.19
-8.59
-10.10
-11.71
-13.41
-15.20
-17.04
-18.78
-20.09
-20.51
-19.58
-17.02
-12.90
-7.64
-1.95
3.50
8.20
11.92
14.66
16.47
17.36
17.32
16.34
14.56
12.25
9.77
7.40
5.31
3.51
1.96
0.60
-0.56
-1.53
-2.34
-3.07
-3.80
-4.59
-5.46
-6.41
-7.45
-8.62
-9.97
-11.55
-13.42
-15.56
-17.91
-20.31
-22.41
-23.75
-23.82
-22.23
-18.88
-14.04
-8.29
-2.33
3.24
8.01
11.84
14.74
16.75
17.89
18.12
17.43
15.91
13.78
11.36
8.97
6.87
5.20
3.95
3.02
2.27
1.54
0.71
-0.26
-1.33
-2.39
-3.32
-4.06
-4.69
-5.44
-6.57
-8.31
-10.72
-13.65
-16.78
-19.62
-21.67
-22.42
-21.47
-18.65
-14.07
-8.17
-1.62
4.80
10.46
14.99
18.27
20.36
21.36
21.36
20.47
18.85
16.77
14.55
12.52
10.82
9.44
8.23
7.03
5.76
4.47
3.24
2.16
1.28
0.56
-0.05
-0.64
-1.35
-2.33
-3.80
-5.87
-8.55
-11.63
-14.71
-17.24
-18.70
-18.70
-17.04
-13.80
-9.29
-4.01
1.46
6.61
11.03
14.53
17.05
18.62
19.26
18.92
17.61
15.46
12.76
9.94
7.46
5.60
4.37
3.55
2.76
1.65
0.06
-2.02
-4.44
-7.04
-9.71
-12.43
-15.21
-18.06
-20.97
-23.85
-26.57
-28.87
-30.45
-30.92
-29.87
-27.09
-22.60
-16.76
-10.22
-3.77
1.87
6.26
9.25
11.01
11.85
12.13
12.16
12.13
12.16
12.30
12.54
12.81
12.97
12.84
12.19
10.85
8.81
6.20
3.34
0.61
-1.67
-3.32
-4.38
-5.02
-5.49
-6.08
-7.05
-8.57
-10.75
-13.52
-16.54
-19.23
-20.83
-20.64
-18.26
-13.76
-7.68
-0.86
5.84
11.73
16.45
19.91
22.20
23.47
23.85
23.43
22.32
20.68
18.73
16.71
14.77
13.00
11.39
9.92
8.58
7.48
6.71
6.40
6.53
6.97
7.51
7.83
7.67
6.82
5.18
2.79
-0.14
-3.29
-6.21
-8.46
-9.63
-9.51
-8.09
-5.59
-2.40
1.00
4.15
6.70
8.46
9.35
9.43
8.77
7.49
5.68
3.46
0.96
-1.65
-4.22
-6.56
-8.54
-10.14
-11.42
-12.58
-13.83
-15.34
-17.16
-19.19
-21.23
-23.09
-24.62
-25.69
-26.11
-25.58
-23.65
-19.88
-14.03
-6.32
2.60
11.70
19.92
26.44
30.87
33.36
34.36
34.52
34.43
34.48
34.86
35.56
36.37
37.02
37.14
36.38
34.43
31.13
26.49
20.81
14.62
8.57
3.24
-1.06
-4.34
-6.87
-9.04
-11.16
-13.37
-15.69
-18.11
-20.57
-22.91
-24.79
-25.66
-24.90
-22.08
-17.21
-10.83
-3.86
2.69
8.05
11.87
14.20
15.38
15.76
15.65
15.14
14.24
12.90
11.12
8.94
6.44
3.68
0.67
-2.64
-6.25
-10.06
-13.77
-16.90
-18.90
-19.34
-18.11
-15.49
-12.11
-8.78
-6.27
-5.18
-5.81
-8.17
-12.05
-17.00
-22.38
-27.33
-30.89
-32.19
-30.72
-26.50
-20.15
-12.65
-5.09
1.65
7.07
11.02
13.55
14.73
14.61
13.28
10.96
8.11
5.34
3.21
2.08
1.94
2.47
3.23
3.83
4.10
4.07
3.89
3.68
3.47
3.17
2.65
1.73
0.35
-1.49
-3.67
-5.95
-8.01
-9.47
-9.94
-9.15
-7.00
-3.60
0.75
5.59
10.38
14.65
18.03
20.33
21.51
21.63
20.80
19.17
16.93
14.32
11.61
9.09
6.93
5.23
3.92
2.89
2.01
1.24
0.60
0.13
-0.14
-0.28
-0.39
-0.62
-1.13
-2.09
-3.62
-5.77
-8.41
-11.21
-13.63
-15.03
-14.92
-13.08
-9.70
-5.32
-0.66
3.68
7.26
9.93
11.68
12.58
12.69
12.08
10.85
9.16
7.22
5.23
3.37
1.77
0.52
-0.32
-0.70
-0.66
-0.27
0.33
0.96
1.42
1.55
1.18
0.20
-1.44
-3.72
-6.54
-9.66
-12.71
-15.22
-16.71
-16.82
-15.40
-12.60
-8.82
-4.62
-0.54
3.00
5.77
7.72
8.91
9.45
9.43
8.96
8.12
7.01
5.71
4.35
3.05
1.94
1.07
0.39
-0.28
-1.16
-2.40
-4.07
-6.05
-8.15
-10.17
-12.00
-13.63
-15.11
-16.56
-17.99
-19.41
-20.72
-21.78
-22.39
-22.28
-21.23
-19.11
-15.98
-12.09
-7.85
-3.67
0.10
3.21
5.57
7.13
7.88
7.86
7.16
5.94
4.42
2.80
1.21
-0.31
-1.79
-3.28
-4.76
-6.14
-7.26
-7.95
-8.09
-7.65
-6.75
-5.58
-4.44
-3.69
-3.61
-4.38
-5.93
-7.92
-9.81
-10.99
-10.98
-9.56
-6.81
-3.07
1.21
5.57
9.65
13.19
16.04
18.08
19.19
19.23
18.13
15.91
12.77
9.04
5.15
1.52
-1.54
-3.83
-5.32
-6.05
-6.11
-5.60
-4.67
-3.44
-2.09
-0.79
0.26
0.84
0.73
-0.26
-2.16
-4.86
-8.03
-11.18
-13.73
-15.11
-14.86
-12.80
-9.03
-3.93
1.90
7.85
13.35
17.98
21.45
23.56
24.16
23.19
20.74
17.13
12.89
8.68
5.04
2.32
0.61
-0.16
-0.09
0.82
2.58
5.06
7.89
10.48
12.26
12.90
12.42
11.15
9.47
7.55
5.29
2.53
-0.71
-4.03
-6.70
-7.99
-7.49
-5.27
-1.91
1.84
5.28
7.98
9.81
10.81
11.10
10.76
9.86
8.50
6.82
5.04
3.36
1.92
0.74
-0.31
-1.41
-2.77
-4.50
-6.58
-8.83
-10.98
-12.78
-14.13
-15.05
-15.78
-16.59
-17.74
-19.28
-21.02
-22.56
-23.36
-23.01
-21.31
-18.43
-14.79
-10.91
-7.21
-3.94
-1.14
1.22
3.11
4.42
5.04
4.87
4.01
2.67
1.13
-0.29
-1.30
-1.52
-0.59
1.81
5.79
11.15
17.43
24.09
30.71
37.07
43.09
48.56
52.98
55.55
55.41
52.07
45.69
37.13
27.67
18.71
11.37
6.34
3.87
3.77
5.51
8.32
11.35
13.85
15.34
15.70
15.09
13.84
12.32
10.87
9.83
9.55
10.35
12.40
15.62
19.63
23.78
27.38
29.85
30.94
30.80
29.88
28.74
27.76
26.95
25.83
23.70
19.92
14.34
7.44
0.23
-6.05
-10.36
-12.14
-11.34
-8.34
-3.75
1.71
7.35
12.48
16.55
19.24
20.55
20.87
20.78
20.86
21.49
22.75
24.58
26.90
29.81
33.52
38.15
43.56
49.32
54.82
59.49
63.02
65.34
66.54
66.77
66.24
65.19
63.92
62.62
61.08
58.48
53.45
44.53
31.06
13.85
-4.55
-20.61
-31.16
-34.86
-32.95
-29.02
-27.71
-33.01
-46.90
-68.84
-96.24
-125.45
-152.88
-175.76
-192.40
-202.28
-205.84
-204.26
-199.09
-191.86
-183.62
-174.76
-164.96
-153.65
-140.39
-125.22
-108.82
-92.23
-76.51
-62.44
-50.35
-40.25
-31.90
-24.90
-18.71
-12.63
-5.94
1.90
10.97
20.82
30.61
39.51
46.96
52.86
57.43
60.91
63.31
64.41
63.84
61.41
57.25
51.85
45.87
39.92
34.31
29.09
24.24
19.72
15.58
11.90
8.68
5.83
3.09
0.08
-3.46
-7.52
-11.90
-16.27
-20.36
-24.01
-27.11
-29.57
-31.45
-32.63
-32.87
-31.93
-29.82
-26.87
-23.65
-20.74
-18.56
-17.80
-18.56
-20.36
-22.46
-24.37
-26.01
-27.53
-29.01
-30.40
-32.60
-35.98
-40.21
-44.57
-48.68
-52.66
-56.76
-61.14
-65.75
-72.18
-81.06
-91.68
-102.45
-112.18
-120.47
-127.43
-133.17
-137.47
-141.99
-146.77
-149.89
-148.44
-140.52
-126.15
-107.02
-85.72
-50.95
-1.46
54.15
102.82
136.39
154.27
160.28
159.36
155.89
153.11
150.71
148.17
145.68
143.74
142.29
140.66
138.26
135.00
131.23
125.58
117.39
107.30
96.94
87.86
80.86
75.98
72.65
69.93
65.88
59.23
50.28
40.48
31.48
24.40
19.77
17.57
17.41
18.14
18.77
18.85
18.45
17.82
17.25
16.95
17.06
17.56
18.11
18.41
18.37
18.15
18.00
18.03
18.17
18.11
17.37
15.44
12.44
8.69
4.77
1.44
-0.70
-1.31
-0.48
1.37
3.68
5.90
7.56
8.37
8.18
7.00
5.05
2.75
0.66
-0.73
-1.14
-0.64
0.46
1.79
3.03
4.06
4.85
5.37
5.57
5.38
4.73
3.75
2.70
1.85
1.30
0.97
0.56
-0.19
-1.37
-2.78
-4.05
-4.87
-5.08
-4.84
-4.43
-4.09
-3.90
-3.72
-3.37
-2.78
-2.06
-1.45
-1.17
-1.32
-1.78
-2.38
-2.97
-3.49
-4.02
-4.66
-5.49
-6.50
-7.62
-8.68
-9.52
-10.03
-10.15
-9.90
-9.41
-8.88
-8.56
-8.63
-9.13
-9.91
-10.67
-11.14
-11.18
-10.91
-10.59
-10.42
-10.48
-10.65
-10.67
-10.38
-9.67
-8.53
-6.91
-4.68
-1.69
2.09
6.49
11.10
