1478929981.00
64.000000
-0.00
-0.00
-0.00
-0.00
-0.00
-0.00
-0.00
-0.00
-0.00
-0.00
0.00
0.01
0.01
-0.00
-0.03
-0.05
-0.05
0.00
0.13
0.36
0.66
1.01
1.37
1.72
2.06
2.40
2.79
3.24
3.80
4.42
5.06
5.66
6.20
6.68
7.15
7.68
8.31
9.14
10.09
11.04
11.88
12.56
13.14
13.76
14.65
15.96
17.91
20.32
22.90
25.38
27.58
29.57
31.68
34.32
37.81
42.54
48.15
54.10
59.83
64.97
69.58
74.14
79.34
85.71
93.76
103.00
112.62
121.73
129.77
136.75
143.30
150.75
157.77
166.64
177.95
191.79
206.97
220.57
228.25
225.36
208.53
176.87
132.76
80.05
23.07
-34.94
-92.44
-149.16
-205.23
-260.37
-313.74
-363.87
-409.83
-450.91
-486.50
-515.74
-537.23
-549.22
-549.96
-538.37
-514.21
-478.67
-433.88
-382.45
-327.02
-269.84
-212.63
-156.66
-102.95
-52.37
-5.90
35.58
71.43
101.35
125.50
144.38
158.69
169.15
176.37
180.75
182.57
182.07
179.51
175.23
169.65
163.18
156.15
148.81
141.30
133.69
126.02
118.33
110.69
103.16
95.80
88.68
81.83
75.25
68.95
62.95
57.25
51.86
46.78
42.03
37.59
33.45
29.61
26.07
22.81
19.83
17.11
14.67
12.48
10.54
8.83
7.35
6.07
4.97
4.05
3.27
2.62
2.09
1.65
1.30
1.01
0.79
0.61
0.47
0.37
0.29
0.25
0.23
0.22
0.21
0.18
0.13
0.06
-0.00
-0.04
-0.05
-0.03
0.01
0.05
0.04
0.01
-0.06
-0.12
-0.14
-0.10
-0.01
0.09
0.16
0.16
0.08
-0.06
-0.19
-0.24
-0.15
0.06
0.30
0.45
0.42
0.18
-0.21
-0.58
-0.74
-0.59
-0.16
0.38
0.74
0.72
0.24
-0.55
-1.32
-1.71
-1.50
-0.76
0.20
0.90
0.94
0.23
-0.99
-2.19
-2.86
-2.68
-1.72
-0.39
0.74
1.19
0.61
-1.23
-4.42
-8.71
-13.30
-16.83
-17.69
-14.82
-8.32
0.36
8.93
15.16
18.00
17.84
16.22
14.75
14.30
14.59
14.66
13.60
11.12
7.73
4.33
1.61
-0.25
-1.58
-2.85
-4.39
-6.10
-7.55
-8.24
-7.90
-6.60
-4.78
-3.01
-1.75
-1.24
-1.43
-2.10
-2.87
-3.45
-3.66
-3.46
-2.92
-2.14
-1.24
-0.38
0.27
0.58
0.38
-0.42
-1.76
-3.36
-4.62
-4.72
-2.91
1.20
7.38
14.68
21.67
26.88
29.34
28.77
25.61
20.61
14.59
8.25
2.13
-3.31
-7.67
-10.69
-12.41
-12.75
-12.08
-10.98
-9.95
-9.25
-8.94
-8.94
-9.25
-9.95
-11.18
-13.04
-15.38
-17.85
-20.00
-21.51
-22.39
-22.95
-23.68
-25.02
-27.16
-29.85
-32.39
-33.79
-32.95
-28.95
-21.44
-10.81
1.77
14.54
25.73
34.08
39.16
41.40
41.72
40.99
39.74
38.02
35.63
32.44
28.60
24.48
20.49
16.91
13.75
10.85
8.01
5.16
2.33
-0.32
-2.74
-4.95
-7.09
-9.35
-11.87
-14.69
-17.74
-20.95
-24.30
-27.85
-31.71
-35.89
-40.20
-43.97
-46.18
-45.56
-41.10
-32.52
-20.55
-6.84
6.55
17.78
25.84
30.67
32.90
33.36
32.62
30.87
28.09
24.38
20.04
15.63
11.72
8.66
6.58
5.37
4.85
4.84
5.20
5.75
6.30
6.69
6.81
6.71
6.50
6.31
6.21
6.12
5.84
5.04
3.35
0.44
-3.74
-8.77
-13.62
-16.69
-16.31
-11.28
-1.53
11.68
26.07
39.02
48.44
53.27
53.59
50.27
44.47
37.23
29.37
21.53
14.25
8.01
3.08
-0.60
-3.40
-5.87
-8.45
-11.28
-14.08
-16.32
-17.49
-17.37
-16.18
-14.56
-13.32
-13.19
-14.54
-17.32
-21.05
-25.13
-28.85
-31.64
-33.06
-32.78
-30.62
-26.56
-20.77
-13.76
-6.24
0.95
7.07
11.67
14.65
16.20
16.65
16.30
15.37
13.95
12.07
9.79
7.20
4.49
1.89
-0.31
-1.89
-2.75
-3.01
-3.06
-3.39
-4.43
-6.35
-8.96
-11.82
-14.39
-16.29
-17.49
-18.29
-19.27
-20.96
-23.63
-27.08
-30.58
-33.05
-33.30
-30.41
-24.09
-14.82
-3.79
7.44
17.32
24.76
29.33
31.22
30.99
29.30
26.64
23.35
19.68
15.90
12.31
9.22
6.74
4.77
3.01
1.14
-1.07
-3.69
-6.57
-9.50
-12.28
-14.75
-16.89
-18.78
-20.65
-22.82
-25.65
-29.45
-34.33
-40.08
-46.02
-51.00
-53.61
-52.61
-47.37
-38.31
-26.86
-15.08
-4.96
2.15
5.85
6.53
4.89
1.53
-3.33
-9.69
-17.57
-26.67
-36.39
-45.96
-54.68
-62.21
-68.55
-74.07
-79.39
-85.23
-92.20
-100.68
-110.62
-121.37
-131.74
-140.17
-145.16
-145.58
-141.07
-132.00
-119.28
-103.91
-86.45
-66.72
-43.83
-16.76
14.92
50.37
87.19
121.85
150.52
170.24
179.65
179.45
171.99
160.58
148.49
138.15
130.72
126.08
123.18
120.59
116.93
111.21
102.81
91.48
77.31
60.87
43.29
26.32
11.92
1.77
-3.43
-4.27
-2.58
-0.82
-1.44
-6.09
-15.20
-27.81
-41.79
-54.20
-62.08
-63.14
-56.47
-42.82
-24.46
-4.50
14.03
29.00
39.47
45.59
48.13
47.93
45.69
42.04
37.68
33.50
30.42
29.15
29.87
32.12
34.92
37.09
37.61
35.90
31.94
26.22
19.48
12.48
5.77
-0.41
-6.04
-11.22
-16.08
-20.72
-25.34
-30.24
-35.71
-41.78
-47.82
-52.46
-53.83
-50.26
-41.07
-27.04
-10.35
6.16
19.98
29.74
35.41
37.91
38.42
37.79
36.28
33.86
30.54
26.68
22.98
20.17
18.58
17.98
17.59
16.47
13.94
9.89
4.83
-0.27
-4.41
-6.89
-7.55
-6.77
-5.36
-4.26
-4.40
-6.58
-11.37
-18.98
-29.02
-40.25
-50.56
-57.39
-58.39
-52.42
-39.97
-23.23
-5.29
10.83
23.12
30.94
34.80
35.75
34.88
32.90
30.29
27.42
24.80
23.00
22.48
23.32
25.08
26.88
27.67
26.55
23.05
17.27
9.90
1.92
-5.55
-11.60
-15.73
-17.92
-18.64
-18.82
-19.60
-22.14
-27.18
-34.74
-43.90
-52.74
-58.83
-59.86
-54.47
-42.76
-26.40
-8.08
9.29
23.45
33.25
38.63
40.34
39.33
36.42
32.17
27.01
21.39
15.92
11.28
8.01
6.22
5.58
5.33
4.66
2.95
0.08
-3.59
-7.45
-10.90
-13.66
-15.82
-17.75
-19.99
-23.03
-27.31
-33.02
-39.99
-47.47
-54.09
-58.04
-57.56
-51.62
-40.37
-25.25
-8.50
7.50
21.04
31.34
38.49
43.03
45.49
46.17
45.16
42.60
38.80
34.35
29.88
25.95
22.81
20.32
18.14
15.85
13.16
10.09
6.86
3.80
1.13
-1.19
-3.44
-6.01
-9.28
-13.49
-18.69
-24.81
-31.67
-38.84
-45.49
-50.28
-51.57
-47.89
-38.60
-24.36
-7.01
10.93
27.18
40.35
50.22
57.34
62.51
66.21
68.47
69.07
67.92
65.29
61.75
57.95
54.34
51.05
47.95
44.84
41.61
38.27
34.96
31.77
28.64
25.37
21.58
16.90
11.08
4.00
-4.25
-13.47
-23.37
-33.58
-43.47
-52.13
-58.30
-60.70
-58.41
-51.38
-40.52
-27.59
-14.54
-2.98
6.21
12.87
17.20
19.42
19.54
17.51
13.43
7.75
1.37
-4.74
-9.79
-13.45
-15.93
-17.83
-19.79
-22.28
-25.31
-28.56
-31.49
-33.69
-35.18
-36.45
-38.41
-42.06
-48.11
-56.70
-67.20
-78.14
-87.40
-92.58
-91.54
-83.00
-67.09
-45.42
-20.72
3.83
25.49
42.52
54.44
61.71
65.26
66.00
64.57
61.37
56.68
50.86
44.36
37.73
31.38
25.59
20.35
15.53
11.05
6.98
3.63
1.39
0.52
0.92
2.02
2.91
2.64
0.50
-3.81
-10.14
-18.06
-26.95
-35.98
-44.05
-49.66
-51.17
-47.17
-37.17
-21.99
-3.76
14.63
30.44
41.91
48.66
51.54
52.02
51.47
50.64
49.68
48.31
46.29
43.60
40.45
37.17
33.96
30.83
27.65
24.32
20.86
17.45
14.28
11.52
9.13
6.91
4.54
1.67
-2.02
-6.73
-12.61
-19.66
-27.78
-36.60
-45.39
-52.99
-57.84
-58.34
-53.42
-43.01
-28.28
-11.43
4.99
18.81
28.85
34.95
37.69
37.85
36.01
32.46
27.43
21.33
14.88
9.01
4.60
2.13
1.51
2.11
2.93
2.95
1.42
-1.80
-6.34
-11.36
-16.01
-19.72
-22.40
-24.43
-26.41
-28.97
-32.56
-37.36
-43.22
-49.53
-55.09
-58.25
-57.25
-50.88
-39.08
-23.18
-5.60
10.95
24.32
33.58
38.98
41.56
42.46
42.43
41.61
39.77
36.60
32.09
26.65
20.98
15.86
11.79
8.85
6.69
4.75
2.48
-0.34
-3.63
-7.05
-10.25
-13.09
-15.63
-18.11
-20.82
-23.97
-27.76
-32.40
-38.12
-44.96
-52.37
-59.03
-62.91
-61.80
-54.24
-40.18
-21.31
-0.57
18.77
34.17
44.48
49.96
51.76
51.27
49.59
47.32
44.69
41.78
38.61
35.19
31.48
27.44
23.03
18.39
13.75
9.45
5.78
2.85
0.56
-1.31
-3.05
-4.92
-7.11
-9.80
-13.14
-17.25
-22.23
-28.17
-35.11
-42.95
-51.21
-58.81
-64.13
-65.23
-60.62
-49.83
-33.81
-14.72
4.73
22.09
35.82
45.46
51.35
54.15
54.50
52.89
49.74
45.52
40.77
35.99
31.45
27.24
23.24
19.38
15.69
12.33
9.47
7.13
5.10
2.99
0.40
-2.84
-6.68
-10.82
-14.93
-18.75
-22.26
-25.64
-29.22
-33.43
-38.67
-45.15
-52.67
-60.40
-66.75
-69.68
-67.27
-58.49
-43.74
-25.02
-5.28
12.45
26.06
34.86
39.50
41.34
41.75
41.53
40.86
39.50
37.19
33.86
29.75
25.22
20.71
16.52
12.86
9.78
7.18
4.89
2.67
0.27
-2.43
-5.46
-8.66
-11.86
-14.91
-17.81
-20.71
-23.95
-27.97
-33.21
-39.85
-47.60
-55.37
-61.35
-63.35
-59.54
-49.17
-33.09
-13.60
6.25
23.62
36.71
45.06
49.28
50.55
49.92
48.16
45.65
42.59
39.14
35.36
31.32
26.99
22.34
17.46
12.62
8.17
4.43
1.46
-0.93
-3.14
-5.59
-8.50
-11.86
-15.52
-19.26
-22.99
-26.76
-30.82
-35.56
-41.39
-48.58
-56.95
-65.58
-72.71
-76.03
-73.37
-63.55
-47.06
-26.07
-3.82
16.41
32.29
42.99
49.01
51.62
52.17
51.63
50.46
48.77
46.57
43.82
40.56
36.76
32.41
27.54
22.32
17.07
12.18
7.89
4.20
0.84
-2.61
-6.49
-10.92
-15.69
-20.51
-25.09
-29.38
-33.58
-38.14
-43.52
-50.03
-57.56
-65.38
-72.04
-75.62
-74.23
-66.73
-53.32
-35.63
-16.36
1.65
16.29
26.70
33.23
36.89
38.67
39.18
38.48
36.44
32.98
28.32
22.94
17.40
12.18
7.55
3.57
0.12
-2.99
-6.01
-9.16
-12.60
-16.40
-20.49
-24.71
-28.95
-33.23
-37.76
-42.98
-49.38
-57.39
-67.14
-78.18
-89.37
-98.89
-104.67
-104.96
-99.11
-87.95
-73.73
-59.38
-47.43
-39.12
-33.95
-29.93
-24.38
-14.90
-0.07
20.22
44.81
71.70
98.61
123.48
144.88
162.05
174.74
182.92
186.59
185.70
180.35
171.05
158.70
144.43
129.27
113.90
98.52
83.17
67.89
52.93
38.71
25.60
13.78
3.17
-6.36
-14.82
-21.90
-26.89
-28.87
-27.04
-21.18
-11.79
-0.17
11.90
22.51
30.07
33.55
32.53
27.25
18.51
7.55
-4.13
-15.10
-24.43
-31.96
-38.31
-44.55
-51.56
-59.52
-67.71
-74.89
-79.94
-82.57
-83.62
-84.78
-87.98
-94.66
-105.37
-119.76
-136.70
-154.20
-169.25
-177.94
-176.38
-162.41
-137.20
-105.93
-76.35
-55.84
-48.05
-51.12
-58.52
-62.17
-56.10
-38.63
-12.00
19.95
54.29
89.97
127.00
164.56
199.69
227.65
243.64
244.95
232.24
209.21
181.05
152.59
127.05
105.83
89.14
76.67
68.16
63.30
61.52
61.72
62.22
60.99
56.21
46.81
32.90
15.80
-2.31
-19.09
-32.67
-42.18
-47.77
-50.43
-51.44
-51.81
-51.88
-51.27
-49.09
-44.38
-36.69
-26.39
-14.72
-3.47
5.53
11.07
12.89
11.73
8.95
6.01
3.88
2.84
2.51
2.18
1.17
-0.98
-4.38
-8.83
-13.59
-17.28
-18.05
-14.18
-5.12
7.62
20.39
28.43
27.67
16.49
-3.48
-27.99
-51.91
-71.10
-83.61
-89.77
-91.26
-90.11
-87.96
-85.88
-84.42
-83.72
-83.34
-82.17
-78.63
-71.22
-59.19
-43.06
-24.67
-6.54
8.91
20.09
26.52
28.72
27.71
24.69
20.77
16.81
13.42
10.86
9.02
7.48
5.76
3.52
0.69
-2.56
-6.01
-9.57
-13.32
-17.46
-22.09
-27.13
-32.20
-36.83
-40.57
-43.24
-45.06
-46.68
-49.10
-53.35
-60.21
-69.84
-81.48
-93.47
-103.56
-109.52
-109.84
-104.15
-93.30
-78.89
-62.55
-45.19
-26.85
-6.90
15.29
39.72
65.47
90.82
113.81
132.78
146.70
155.23
158.54
157.13
151.70
143.14
132.57
121.22
110.23
100.30
91.51
83.36
75.03
65.83
55.53
44.56
33.76
23.97
15.69
8.86
3.02
-2.43
-7.81
-12.92
-17.07
-19.19
-18.14
-12.88
-2.61
13.07
34.09
59.53
87.52
115.10
138.66
154.74
160.78
155.85
140.61
116.82
86.61
51.87
14.14
-25.08
-63.97
-100.20
-131.27
-155.01
-170.25
-177.08
-176.87
-171.86
-164.74
-158.04
-153.91
-153.83
-158.55
-168.05
-181.45
-196.92
-211.64
-222.19
-225.14
-217.98
-199.90
-172.11
-137.46
-99.51
-61.56
-25.91
6.29
34.68
59.25
79.98
96.74
109.51
118.68
125.07
129.90
134.36
139.33
145.04
151.12
156.89
161.70
165.22
167.54
168.86
169.19
168.03
164.41
157.15
145.20
127.91
105.20
77.50
45.79
11.68
-22.42
-53.38
-77.76
-92.51
-96.00
-88.68
-73.19
-53.61
-34.24
-18.32
-7.36
-1.13
1.72
2.66
2.75
2.38
1.51
-0.03
-2.19
-4.71
-7.14
-9.07
-10.33
-11.01
-11.50
-12.25
-13.59
-15.57
-17.94
-20.36
-22.55
-24.55
-26.61
-29.11
-32.32
-36.38
-41.29
-46.94
-53.01
-58.80
-63.10
-64.30
-60.94
-52.29
-38.86
-22.43
-5.51
9.47
20.84
28.05
31.43
31.76
29.81
26.15
21.30
15.80
10.39
5.74
2.22
-0.34
-2.62
-5.55
-9.82
-15.57
-22.25
-28.89
-34.46
-38.34
-40.58
-41.83
-43.07
-45.25
-48.99
-54.41
-61.13
-68.24
-74.35
-77.81
-76.97
-70.71
-58.97
-42.96
-24.94
-7.50
7.24
18.21
25.46
29.74
31.78
31.94
30.05
25.86
19.43
11.43
3.04
-4.40
-10.01
-13.67
-16.10
-18.53
-22.12
-27.47
-34.42
-42.22
-50.01
-57.34
-64.35
-71.65
-79.95
-89.58
-100.37
-111.53
-121.73
-129.12
-131.34
-125.85
-110.39
-83.95
-47.50
-4.19
41.11
83.09
117.30
141.12
153.95
156.69
151.09
139.18
123.09
105.16
87.73
72.90
61.81
54.19
48.34
41.84
32.57
19.77
4.46
-10.87
-23.18
-30.09
-30.71
-25.82
-17.47
-8.17
-0.19
4.86
6.00
2.85
-4.39
-14.66
-25.82
-34.83
-38.46
-34.34
-21.89
-2.63
20.37
43.69
64.67
82.17
96.26
107.70
117.14
124.73
130.13
132.90
132.79
129.97
124.87
118.11
110.33
102.08
93.85
86.01
78.80
72.35
66.66
61.69
57.32
53.33
49.36
44.91
39.31
31.90
22.12
9.76
-4.84
-20.66
-36.05
-48.95
-57.41
-60.12
-56.83
-48.48
-36.85
-23.98
-11.69
-1.10
7.35
13.65
17.93
20.29
20.74
19.43
16.73
13.30
9.98
7.47
6.11
5.87
6.37
7.17
7.96
8.71
9.62
10.96
12.88
15.27
17.76
19.73
20.45
19.17
15.26
8.32
-1.66
-14.23
-28.50
-43.16
-56.64
-67.31
-73.67
-74.61
-69.68
-59.30
-44.70
-27.75
-10.54
5.04
17.62
26.38
30.99
31.43
27.89
20.85
11.18
0.15
-10.61
-19.32
-24.46
-25.16
-21.50
-14.59
-6.32
1.08
5.67
6.21
2.30
-5.72
-17.15
-31.11
-46.65
-62.59
-77.45
-89.60
-97.68
-101.19
-100.76
-97.93
-94.41
-91.17
-87.87
-83.06
-74.99
-62.82
-47.58
-32.30
-21.29
-18.67
-26.90
-45.77
-72.44
-102.36
-130.68
-153.50
-168.50
-174.72
-171.93
-159.88
-138.38
-107.81
-70.15
-29.43
8.69
38.26
54.92
57.30
47.38
29.68
9.51
-8.79
-23.09
-33.56
-41.98
-50.63
-61.14
-73.98
-88.46
-102.90
-115.02
-122.06
-121.19
-110.30
-89.21
-60.80
-31.06
-7.35
4.49
2.99
-7.92
-20.45
-26.49
-21.34
-5.59
15.70
35.95
50.13
56.44
55.99
51.13
43.72
34.63
24.09
12.48
0.69
-10.46
-21.22
-33.66
-51.31
-77.55
-113.35
-155.64
-197.45
-229.89
-245.35
-240.23
-215.90
-177.63
-132.27
-85.91
-42.64
-4.68
27.05
52.29
71.30
85.10
95.39
104.06
112.46
120.92
128.85
135.25
139.26
140.71
140.02
138.03
135.54
133.10
130.94
128.87
126.57
123.72
120.21
116.18
111.99
108.06
104.65
101.78
99.19
96.40
92.75
87.62
80.53
71.33
60.43
48.90
38.32
30.43
26.68
27.66
32.96
41.27
50.80
59.91
67.43
72.93
76.46
78.38
78.99
78.47
76.93
74.44
71.20
67.46
63.49
59.43
55.31
51.04
46.59
42.01
37.44
33.10
29.12
25.49
22.10
18.71
15.08
10.93
6.00
0.04
-7.13
-15.44
-24.43
-33.16
-40.40
-44.90
-45.77
-42.81
-36.55
-28.06
-18.62
-9.36
-1.11
5.62
10.55
13.45
14.20
12.85
9.68
5.20
0.06
-5.16
-10.00
-14.12
-17.31
-19.44
-20.45
-20.34
-19.14
-16.87
-13.40
-8.49
-1.87
6.51
16.37
27.03
37.69
47.84
57.41
66.73
76.13
85.55
94.44
101.88
107.19
110.31
111.91
113.01
114.53
116.68
118.87
119.98
118.86
114.83
107.92
98.86
88.78
78.91
70.18
63.00
57.24
52.38
47.80
43.00
37.83
32.42
27.13
22.36
18.56
16.16
15.34
15.75
16.25
14.97
10.02
0.39
-13.29
-28.75
-42.84
-52.75
-57.11
-56.22
-51.61
-45.09
-37.98
-30.93
-24.10
-17.56
-11.48
-5.92
-0.66
4.79
10.91
17.75
24.76
30.90
35.11
36.75
35.89
33.24
29.79
26.38
23.37
20.59
17.59
13.87
9.11
3.29
-3.41
-10.63
-18.06
-25.42
-32.53
-39.33
-45.84
-52.13
-58.17
-63.69
-68.15
-70.73
-70.61
-67.28
-60.82
-51.97
-41.86
-31.70
-22.37
-14.28
-7.45
-1.68
3.16
7.16
10.37
12.93
15.00
16.71
17.97
18.49
17.85
15.73
12.10
7.38
2.26
-2.39
-5.89
-7.92
-8.72
-9.10
-10.29
-13.56
-19.83
-29.24
-41.03
-53.65
-65.17
-73.78
-78.20
-77.94
-73.25
-65.00
-54.44
-42.95
-31.80
-21.95
-13.84
-7.47
-2.46
1.67
5.28
8.47
11.13
13.07
14.11
14.21
13.40
11.76
9.32
6.13
2.23
-2.22
-6.85
-11.18
-14.69
-17.01
-18.15
-18.52
-18.83
-19.86
-22.17
-25.80
-30.28
-34.60
-37.51
-37.79
-34.62
-27.95
-18.63
-8.28
1.15
8.00
11.48
11.90
10.33
8.15
6.39
5.44
5.11
4.96
4.67
4.24
3.87
3.75
3.83
3.82
3.31
1.99
-0.12
-2.66
-5.05
-6.78
-7.55
-7.49
-7.10
-7.07
-8.04
-10.42
-14.27
-19.24
-24.66
-29.65
-33.19
-34.39
-32.62
-27.76
-20.20
-10.82
-0.73
9.04
17.71
24.89
30.46
34.46
36.98
38.11
37.97
36.74
34.71
32.16
29.33
26.35
23.25
19.94
16.37
12.53
8.51
4.49
0.67
-2.82
-5.96
-8.87
-11.75
-14.84
-18.30
-22.25
-26.73
-31.65
-36.73
-41.39
-44.77
-45.95
-44.22
-39.34
-31.72
-22.34
-12.36
-2.86
5.40
12.10
17.15
20.59
22.40
22.54
21.04
18.12
14.24
10.03
6.10
2.83
0.30
-1.72
-3.52
-5.25
-6.77
-7.72
-7.75
-6.78
-5.16
-3.63
-3.06
-4.14
-7.19
-12.01
-18.00
-24.23
-29.62
-33.16
-34.06
-31.98
-27.06
-19.93
-11.55
-2.92
5.11
12.03
17.57
21.65
24.23
25.32
24.96
23.39
20.95
18.09
15.18
12.45
9.88
7.32
4.57
1.55
-1.70
-4.98
-8.08
-10.84
-13.24
-15.48
-17.94
-21.05
-25.23
-30.61
-36.92
-43.41
-48.96
-52.37
-52.66
-49.33
-42.52
-32.92
-21.62
-9.79
1.49
11.39
19.35
25.07
28.47
29.67
28.96
26.79
23.66
20.07
16.43
13.03
9.98
7.25
4.68
2.15
-0.41
-2.96
-5.35
-7.43
-9.11
-10.51
-11.90
-13.74
-16.44
-20.32
-25.37
-31.18
-36.94
-41.50
-43.69
-42.63
-38.01
-30.29
-20.48
-9.87
0.40
9.55
17.24
23.40
28.02
31.06
32.47
32.26
30.60
27.83
24.31
20.39
16.26
12.05
7.81
3.63
-0.27
-3.60
-6.06
-7.52
-8.15
-8.46
-9.23
-11.24
-15.02
-20.71
-27.99
-36.05
-43.62
-49.08
-50.66
-47.00
-37.67
-23.61
-6.96
9.47
23.20
32.87
38.48
41.07
41.93
41.94
41.31
39.81
37.21
33.65
29.71
26.04
23.13
20.96
19.16
17.21
14.75
11.79
8.65
5.79
3.52
1.94
0.84
-0.18
-1.59
-3.86
-7.36
-12.30
-18.64
-25.93
-33.30
-39.50
-43.19
-43.23
-39.09
-31.04
-20.03
-7.48
5.19
16.86
26.81
34.69
40.37
43.79
44.97
44.07
41.46
37.68
33.37
29.04
24.95
21.15
17.52
13.89
10.16
6.35
2.58
-0.96
-4.10
-6.76
-8.99
-11.00
-13.09
-15.58
-18.73
-22.74
-27.61
-33.06
-38.50
-42.94
-45.21
-44.28
-39.61
-31.41
-20.62
-8.64
3.08
13.39
21.63
27.55
31.17
32.69
32.37
30.57
27.71
24.27
20.67
17.26
14.21
11.56
9.19
6.92
4.55
1.99
-0.75
-3.47
-5.93
-7.90
-9.35
-10.46
-11.65
-13.40
-16.13
-20.09
-25.18
-30.98
-36.74
-41.45
-44.05
-43.63
-39.66
-32.22
-22.00
-10.18
1.86
12.88
22.09
29.15
34.13
37.26
38.76
38.68
37.05
33.96
29.76
25.01
20.36
16.31
13.02
10.33
7.87
5.29
2.43
-0.59
-3.54
-6.15
-8.35
-10.27
-12.21
-14.51
-17.46
-21.24
-25.87
-31.19
-36.72
-41.63
-44.77
-44.99
-41.49
-34.16
-23.77
-11.73
0.39
11.29
20.30
27.30
32.52
36.21
38.44
39.14
38.24
35.84
32.31
28.15
23.89
19.86
16.14
12.61
9.05
5.34
1.56
-2.07
-5.31
-8.02
-10.27
-12.32
-14.49
-17.05
-20.14
-23.80
-28.05
-32.85
-38.00
-42.95
-46.83
-48.49
-46.89
-41.48
-32.48
-20.89
-8.20
4.09
14.86
23.59
30.25
35.11
38.42
40.32
40.85
40.06
38.10
35.23
31.82
28.23
24.73
21.46
18.41
15.45
12.39
9.06
5.38
1.40
-2.69
-6.66
-10.33
-13.64
-16.66
-19.58
-22.61
-25.96
-29.73
-33.88
-38.07
-41.65
-43.67
-43.09
-39.15
-31.68
-21.29
-9.23
2.97
13.97
23.03
30.02
35.22
38.98
41.46
42.58
42.17
40.23
36.98
32.91
28.48
24.03
19.62
15.18
10.65
6.10
1.71
-2.26
-5.65
-8.42
-10.69
-12.71
-14.80
-17.37
-20.83
-25.50
-31.52
-38.73
-46.59
-54.25
-60.55
-64.30
-64.42
-60.32
-52.01
-40.21
-26.17
-11.42
2.57
14.67
24.24
31.09
35.34
37.29
37.30
35.73
32.93
29.24
25.00
20.51
15.98
11.47
6.84
1.81
-3.87
-10.19
-16.84
-23.14
-28.35
-31.90
-33.67
-33.97
-33.47
-32.91
-32.87
-33.78
-35.88
-39.26
-43.83
-49.19
-54.49
-58.53
-59.99
-57.83
-51.65
-41.86
-29.54
-16.15
-3.12
8.42
17.85
25.01
30.06
33.32
35.07
35.55
34.91
33.34
31.10
28.48
25.78
23.18
20.67
18.14
15.46
12.56
9.57
6.67
4.04
1.75
-0.28
-2.25
-4.42
-7.05
-10.38
-14.58
-19.69
-25.56
-31.64
-37.05
-40.62
-41.24
-38.22
-31.54
-21.93
-10.66
0.86
11.42
20.29
27.21
32.27
35.73
37.84
38.75
38.53
37.23
34.98
32.00
28.63
25.21
22.06
19.32
17.02
15.03
13.22
11.49
9.75
7.97
6.06
3.92
1.46
-1.38
-4.63
-8.29
-12.40
-17.00
-22.09
-27.53
-32.86
-37.30
-39.83
-39.43
-35.45
-27.88
-17.48
-5.60
6.19
16.58
24.82
30.83
34.92
37.53
38.87
38.96
37.72
35.25
31.92
28.32
25.01
22.28
20.06
18.03
15.80
13.13
10.09
6.95
4.05
1.59
-0.43
-2.19
-3.96
-5.95
-8.27
-11.04
-14.37
-18.44
-23.33
-28.75
-33.98
-37.84
-39.04
-36.62
-30.37
-20.96
-9.69
1.89
12.51
21.40
28.30
33.24
36.36
37.71
37.34
35.42
32.27
28.40
24.33
20.52
17.17
14.28
11.65
9.08
6.40
3.59
0.78
-1.82
-3.99
-5.60
-6.70
-7.50
-8.40
-9.81
-12.09
-15.42
-19.71
-24.56
-29.26
-32.78
-33.97
-31.87
-25.99
-16.60
-4.73
8.17
20.62
31.46
40.06
46.24
49.97
51.28
50.16
46.72
41.36
34.75
27.77
21.23
15.64
11.15
7.56
4.54
1.76
-0.96
-3.63
-6.14
-8.35
-10.23
-11.82
-13.35
-15.13
-17.56
-21.02
-25.80
-31.95
-39.07
-46.21
-51.97
-54.79
-53.40
-47.31
-37.00
-23.81
-9.54
4.07
15.80
25.02
31.64
35.83
37.81
37.79
35.99
32.74
28.54
23.94
19.39
15.08
10.88
6.44
1.46
-4.13
-10.02
-15.62
-20.31
-23.77
-26.08
-27.73
-29.45
-31.87
-35.41
-40.13
-45.72
-51.47
-56.40
-59.35
-59.23
-55.33
-47.61
-36.76
-24.03
-10.84
1.56
12.34
21.13
27.80
32.27
34.49
34.46
32.39
28.77
24.24
19.47
14.92
10.76
6.89
3.13
-0.72
-4.64
-8.48
-12.01
-14.96
-17.21
-18.82
-20.02
-21.21
-22.87
-25.44
-29.20
-34.02
-39.23
-43.65
-45.85
-44.58
-39.18
-29.87
-17.71
-4.26
8.92
20.65
30.36
37.96
43.65
47.67
50.17
51.23
50.89
49.28
46.61
43.15
39.13
34.71
29.97
24.93
19.68
14.38
9.33
4.85
1.19
-1.64
-3.84
-5.86
-8.28
-11.58
-16.09
-21.82
-28.43
-35.17
-40.95
-44.48
-44.55
-40.42
-32.07
-20.34
-6.74
7.00
19.37
29.41
36.70
41.20
43.10
42.60
39.98
35.67
30.27
24.56
19.23
14.77
11.26
8.47
5.96
3.33
0.46
-2.47
-5.04
-6.80
-7.48
-7.23
-6.56
-6.25
-7.12
-9.77
-14.37
-20.60
-27.62
-34.19
-38.88
-40.35
-37.72
-30.79
-20.21
-7.32
6.20
18.72
29.07
36.64
41.34
43.41
43.16
40.96
37.18
32.35
27.02
21.72
16.74
12.07
7.43
2.49
-2.83
-8.25
-13.17
-16.89
-19.00
-19.50
-18.91
-18.04
-17.82
-18.98
-22.03
-27.04
-33.68
-41.07
-47.85
-52.32
-52.91
-48.63
-39.46
-26.50
-11.55
3.33
16.51
27.09
34.89
40.21
43.49
45.13
45.42
44.67
43.21
41.36
39.27
36.78
33.47
28.80
22.49
14.72
6.26
-1.76
-8.18
-12.18
-13.53
-12.57
-10.14
-7.32
-5.30
-5.15
-7.71
-13.33
-21.68
-31.55
-41.03
-47.93
-50.40
-47.58
-39.77
-28.34
-15.06
-1.58
11.07
22.48
32.58
41.27
48.19
52.85
54.88
54.31
51.69
47.89
43.76
39.86
36.27
32.66
28.51
23.32
16.79
8.89
-0.11
-9.74
-19.31
-28.09
-35.47
-41.17
-45.39
-48.68
-51.67
-54.68
-57.49
-59.37
-59.43
-57.04
-52.12
-45.15
-37.01
-28.58
-20.47
-13.04
-6.52
-1.20
2.49
4.09
3.35
0.55
-3.50
-7.60
-10.55
-11.76
-11.52
-10.96
-11.59
-14.52
-19.80
-26.21
-31.69
-34.29
-33.14
-29.11
-24.51
-22.15
-23.99
-30.10
-38.45
-45.73
-48.76
-45.89
-37.71
-26.82
-16.75
-10.61
-10.05
-14.84
-23.23
-32.77
-41.18
-46.99
-49.76
-49.87
-48.03
-44.42
-38.08
-26.39
-5.74
26.74
70.73
121.07
167.69
198.25
202.79
178.32
131.51
77.67
35.80
21.77
42.24
91.71
154.32
209.56
240.04
237.82
207.28
163.04
123.83
104.77
111.33
137.50
168.82
188.84
186.14
158.77
114.22
65.36
24.34
-2.24
-15.00
-19.99
-24.81
-34.67
-50.76
-70.88
-91.64
-110.48
-126.56
-139.97
-150.46
-156.77
-156.81
-149.08
-134.06
-114.81
-96.15
-82.96
-78.21
-81.53
-89.38
-96.55
-98.41
-92.82
-80.89
-66.29
-53.40
-45.32
-42.55
-42.94
-42.77
-38.36
-27.45
-10.00
11.94
34.93
55.08
69.02
74.72
71.93
62.14
48.12
33.05
19.53
9.04
1.78
-2.93
-6.05
-8.35
-10.19
-11.70
-12.95
-14.17
-15.67
-17.68
-20.19
-22.96
-25.68
-28.15
-30.47
-33.00
-36.20
-40.31
-45.01
-49.36
-51.94
-51.32
-46.60
-37.79
-25.86
-12.44
0.71
12.22
21.35
27.99
32.38
34.81
35.46
34.44
31.95
28.39
24.33
20.32
16.70
13.46
10.30
6.87
3.06
-0.91
-4.55
-7.32
-8.91
-9.43
-9.33
-9.31
-10.07
-12.09
-15.52
-20.11
-25.16
-29.61
-32.25
-32.01
-28.31
-21.29
-11.78
-1.06
9.55
18.97
26.55
32.00
35.27
36.38
35.48
32.82
28.84
24.17
19.45
15.17
11.60
8.67
6.18
3.83
1.44
-1.02
-3.42
-5.55
-7.24
-8.51
-9.63
-11.02
-13.19
-16.49
-20.95
-26.18
-31.34
-35.35
-37.14
-36.02
-31.87
-25.17
-16.79
-7.71
1.26
9.60
17.01
23.28
28.13
31.25
32.40
31.57
29.03
25.26
20.80
16.09
11.37
6.72
2.15
-2.26
-6.30
-9.68
-12.15
-13.64
-14.39
-14.86
-15.63
-17.23
-19.98
-23.92
-28.80
-34.06
-38.80
-41.94
-42.34
-39.20
-32.34
-22.35
-10.50
1.66
12.71
21.66
28.13
32.15
33.98
33.93
32.31
29.47
25.81
21.77
17.67
13.69
9.79
5.81
1.67
-2.52
-6.44
-9.61
-11.65
-12.45
-12.28
-11.75
-11.68
-12.80
-15.56
-19.90
-25.22
-30.36
-33.96
-34.74
-31.94
-25.49
-16.07
-4.90
6.61
17.20
25.98
32.49
36.63
38.55
38.51
36.83
33.88
30.07
25.79
21.39
17.10
12.99
9.06
5.28
1.65
-1.69
-4.49
-6.58
-7.89
-8.65
-9.30
-10.43
-12.58
-16.08
-20.92
-26.60
-32.23
-36.63
-38.62
-37.34
-32.59
-24.87
-15.27
-5.14
4.32
12.33
18.56
23.02
25.82
26.99
26.47
24.25
20.50
15.59
10.11
4.68
-0.22
-4.32
-7.60
-10.20
-12.33
-14.19
-15.89
-17.50
-19.13
-20.99
-23.37
-26.64
-31.01
-36.36
-42.10
-47.13
-50.11
-49.83
-45.61
-37.58
-26.63
-14.17
-1.71
9.50
18.69
25.56
30.09
32.42
32.73
31.28
28.44
24.68
20.48
16.17
11.85
7.41
2.74
-2.12
-6.85
-10.93
-13.92
-15.63
-16.24
-16.21
-16.19
-16.81
-18.53
-21.43
-25.08
-28.50
-30.34
-29.20
-24.21
-15.40
-3.75
9.12
21.49
32.05
40.22
45.99
49.66
51.50
51.67
50.25
47.38
43.34
38.54
33.39
28.19
23.05
17.93
12.75
7.55
2.50
-2.08
-5.85
-8.61
-10.45
-11.78
-13.26
-15.59
-19.26
-24.32
-30.17
-35.68
-39.40
-40.00
-36.66
-29.28
-18.58
-5.85
7.40
19.75
30.10
37.82
42.62
44.57
43.93
41.16
36.85
31.68
26.26
21.04
16.23
11.82
7.66
3.68
0.00
-3.06
-5.15
-6.10
-6.07
-5.63
-5.60
-6.87
-10.08
-15.41
-22.45
-30.16
-36.97
-41.19
-41.39
-36.85
-27.87
-15.65
-1.93
11.52
23.37
32.86
39.74
44.02
45.85
45.42
43.06
39.26
34.62
29.71
24.89
20.29
15.83
11.47
7.32
3.69
0.93
-0.75
-1.43
-1.50
-1.54
-2.16
-3.85
-6.88
-11.33
-17.01
-23.32
-29.26
-33.50
-34.68
-31.87
-24.98
-14.82
-2.92
9.03
19.63
28.14
34.37
38.50
40.70
41.03
39.44
36.02
31.13
25.40
19.63
14.48
10.27
6.95
4.21
1.67
-0.89
-3.41
-5.67
-7.45
-8.66
-9.46
-10.27
-11.56
-13.78
-17.24
-21.97
-27.64
-33.45
-38.22
-40.59
-39.45
-34.33
-25.62
-14.44
-2.26
9.55
20.02
28.62
35.14
39.41
41.32
40.85
38.24
34.05
29.05
23.95
19.25
15.12
11.45
8.00
4.57
1.10
-2.31
-5.43
-7.99
-9.80
-10.86
-11.44
-12.04
-13.32
-15.83
-19.79
-24.91
-30.34
-34.85
-37.15
-36.22
-31.65
-23.78
-13.54
-2.23
8.83
18.58
26.39
32.01
35.44
36.81
36.32
34.18
30.71
26.35
21.65
17.15
13.29
10.25
7.97
6.16
4.50
2.79
1.02
-0.66
-2.03
-3.03
-3.80
-4.67
-6.11
-8.56
-12.29
-17.24
-22.95
-28.47
-32.55
-33.91
-31.66
-25.67
-16.65
-5.92
5.01
14.88
22.96
28.98
32.93
34.80
34.51
32.00
27.46
21.48
14.96
8.90
4.10
0.85
-1.11
-2.47
-4.02
-6.38
-9.62
-13.34
-16.68
-18.86
-19.45
-18.75
-17.80
-18.01
-20.62
-26.03
-33.44
-40.93
-46.10
-46.96
-42.70
-34.00
-22.74
-11.19
-1.18
6.50
12.18
16.90
21.90
28.20
36.24
45.63
54.83
61.19
61.35
52.39
33.19
5.52
-26.08
-55.46
-76.98
-87.24
-85.95
-75.36
-58.87
-39.54
-19.40
0.33
18.47
33.30
42.73
45.10
40.23
29.92
17.58
7.02
1.00
0.23
3.45
8.28
12.56
15.31
16.82
18.11
19.92
22.15
23.83
23.72
21.02
15.75
8.76
1.27
-5.67
-11.50
-16.22
-20.15
-23.59
-26.67
-29.24
-31.07
-32.00
-32.16
-32.01
-32.22
-33.44
-36.02
-39.72
-43.71
-46.78
-47.64
-45.37
-39.64
-30.76
-19.60
-7.26
5.10
16.52
26.26
33.82
38.89
41.30
41.04
38.29
33.53
27.51
21.19
15.43
10.77
7.27
4.56
2.07
-0.64
-3.67
-6.73
-9.37
-11.28
-12.44
-13.23
-14.22
-16.03
-19.05
-23.27
-28.23
-33.06
-36.57
-37.60
-35.29
-29.34
-20.16
-8.76
3.55
15.45
25.93
34.37
40.46
44.08
45.19
43.87
40.35
35.24
29.40
23.82
19.34
16.31
14.49
13.21
11.69
9.45
6.59
3.78
1.88
1.56
2.85
5.00
6.70
6.56
3.73
-1.62
-8.14
-13.58
-15.43
-11.77
-1.93
13.12
30.81
47.42
58.84
61.60
53.85
36.01
10.89
-17.09
-43.12
-63.35
-75.90
-80.97
-80.27
-76.12
-70.55
-65.00
-60.32
-56.97
-55.20
-54.99
-55.95
-57.40
-58.56
-58.88
-58.36
-57.54
-57.37
-58.70
-61.86
-66.28
-70.49
-72.40
-70.01
-62.06
-48.58
-30.89
-11.23
8.00
24.90
38.52
48.69
55.79
60.29
62.50
62.65
60.96
57.89
54.03
49.92
45.81
41.59
36.88
31.42
25.36
19.34
14.28
10.96
9.52
9.32
9.16
7.65
3.74
-2.92
-11.87
-21.91
-31.32
-38.18
-40.83
-38.23
-30.28
-17.92
-2.86
12.87
27.47
39.69
48.92
55.09
58.40
59.23
58.03
55.41
52.04
48.57
45.48
42.95
40.84
38.79
36.42
33.55
30.39
27.53
25.82
26.00
28.36
32.30
36.31
38.21
35.76
27.37
12.69
-7.08
-29.50
-51.41
-69.78
-82.41
-88.35
-87.82
-82.01
-72.51
-60.90
-48.49
-36.26
-24.95
-15.19
-7.51
-2.31
0.38
1.00
0.33
-0.69
-1.33
-1.34
-0.91
-0.56
-0.75
-1.58
-2.79
-3.85
-4.32
-4.04
-3.30
-2.65
-2.70
-3.94
-6.62
-10.79
-16.28
-22.65
-29.04
-34.14
-36.36
-34.24
-27.00
-14.98
0.36
16.80
32.10
44.64
53.85
60.07
64.16
66.93
68.82
69.79
69.59
68.01
65.08
61.06
56.31
51.12
45.67
39.98
34.08
28.07
22.18
16.76
12.14
8.59
6.16
4.63
3.52
2.14
-0.22
-4.13
-9.76
-16.78
-24.27
-30.88
-35.09
-35.64
-31.87
-24.02
-13.19
-1.02
10.79
20.87
28.45
33.35
35.70
35.74
33.71
29.85
24.61
18.66
12.88
8.09
4.82
3.12
2.53
2.34
1.86
0.72
-1.09
-3.23
-5.30
-7.04
-8.50
-9.95
-11.76
-14.31
-17.80
-22.29
-27.62
-33.31
-38.54
-42.21
-43.14
-40.48
-34.03
-24.39
-12.80
-0.75
10.46
19.99
27.45
32.71
35.72
36.37
34.63
30.73
25.23
19.01
12.98
7.84
3.81
0.69
-1.98
-4.64
-7.45
-10.26
-12.68
-14.35
-15.11
-15.12
-14.87
-15.02
-16.25
-19.08
-23.73
-29.86
-36.56
-42.39
-45.67
-45.01
-39.74
-30.25
-17.85
-4.36
8.43
19.20
27.31
32.63
35.34
35.63
33.75
30.01
24.93
19.22
13.67
8.94
5.34
2.75
0.70
-1.37
-3.89
-6.90
-10.06
-12.84
-14.78
-15.79
-16.26
-16.96
-18.74
-22.22
-27.47
-33.92
-40.38
-45.36
-47.34
-45.28
-38.89
-28.74
-16.07
-2.46
10.60
22.00
31.11
37.69
41.68
43.16
42.30
39.45
35.19
30.25
25.33
20.92
17.20
14.01
11.04
8.00
4.75
1.43
-1.72
-4.46
-6.66
-8.42
-10.05
-11.95
-14.61
-18.45
-23.64
-29.93
-36.46
-41.82
-44.38
-42.82
-36.63
-26.40
-13.59
-0.06
12.55
23.21
31.53
37.48
41.12
42.44
41.42
38.33
33.78
28.67
23.94
20.20
17.51
15.42
13.18
10.10
5.86
0.71
-4.64
-9.29
-12.52
-14.15
-14.58
-14.72
-15.70
-18.44
-23.35
-30.12
-37.72
-44.58
-49.02
-49.65
-45.78
-37.65
-26.33
-13.39
-0.47
11.17
20.80
28.25
33.65
37.20
38.99
38.97
37.07
33.36
28.14
21.94
15.40
9.07
3.21
-2.18
-7.25
-12.04
-16.32
-19.57
-21.15
-20.63
-18.10
-14.33
-10.74
-9.08
-10.89
-16.92
-26.65
-38.24
-48.92
-55.86
-57.15
-52.36
-42.57
-29.85
-16.29
-3.43
8.05
17.94
26.10
32.12
35.40
35.50
32.54
27.33
21.10
15.01
9.71
5.29
1.35
-2.51
-6.43
-10.16
-13.20
-15.10
-15.74
-15.37
-14.50
-13.71
-13.45
-13.99
-15.51
-18.05
-21.47
-25.30
-28.65
-30.39
-29.41
-25.03
-17.31
-7.03
4.54
16.00
26.21
34.46
40.43
44.06
45.46
44.79
42.33
38.55
34.03
29.41
25.24
21.80
19.05
16.64
14.11
11.10
7.53
3.71
0.13
-2.70
-4.53
-5.51
-6.19
-7.30
-9.54
-13.39
-18.84
-25.36
-31.88
-36.92
-39.00
-37.00
-30.61
-20.41
-7.77
5.67
18.40
29.46
38.40
45.12
49.61
51.82
51.73
49.50
45.63
40.83
35.83
31.10
26.79
22.73
18.63
14.30
9.76
5.27
1.12
-2.46
-5.45
-8.10
-10.84
-14.11
-18.29
-23.51
-29.61
-36.06
-42.00
-46.31
-47.79
-45.57
-39.33
-29.61
-17.72
-5.38
5.72
14.43
20.41
23.97
25.78
26.47
26.40
25.61
24.03
21.68
18.80
15.86
13.39
11.81
11.34
11.99
13.69
16.32
19.76
23.78
27.98
31.80
34.69
36.23
36.38
35.48
34.27
33.75
35.07
39.32
47.32
59.50
75.64
94.69
114.64
132.66
145.50
150.26
145.31
130.88
109.27
84.37
60.72
42.34
31.71
29.23
33.29
40.83
48.24
52.33
51.08
43.98
31.84
16.34
-0.62
-17.49
-33.16
-47.01
-58.80
-68.59
-76.80
-84.05
-90.84
-97.09
-101.89
-103.67
-100.78
-92.36
-78.96
-62.61
-46.20
-32.55
-23.55
-19.75
-20.52
-24.61
-30.64
-37.53
-44.55
-51.30
-57.80
-64.37
-71.57
-79.93
-89.58
-100.10
-110.41
-119.09
-124.70
-126.24
-123.44
-116.87
-107.91
-98.54
-90.95
-86.96
-87.45
-91.99
-98.76
-105.08
-108.21
-106.20
-98.36
-85.35
-68.69
-50.24
-31.66
-14.16
1.43
14.56
24.85
32.07
36.30
37.93
37.64
36.21
34.25
32.10
29.80
27.20
24.15
20.63
16.77
12.83
9.09
5.75
2.82
0.10
-2.74
-6.15
-10.57
-16.32
-23.46
-31.71
-40.28
-48.02
-53.53
-55.56
-53.38
-47.09
-37.52
-26.04
-13.99
-2.38
8.30
17.97
26.62
34.13
40.21
44.57
47.12
48.09
47.94
47.10
45.83
44.13
41.86
38.91
35.35
31.46
27.61
24.18
21.38
19.24
17.60
16.10
14.26
11.53
7.50
2.10
-4.20
-10.34
-14.83
-16.25
-13.63
-6.88
3.20
15.21
27.61
39.14
49.06
57.07
63.10
67.08
68.90
68.39
65.59
60.77
54.54
47.61
40.70
34.29
28.56
23.40
18.58
13.89
9.28
4.88
0.88
-2.52
-5.32
-7.69
-9.95
-12.52
-15.78
-20.07
-25.54
-32.05
-38.98
-45.23
-49.35
-49.94
-46.11
-37.87
-26.11
-12.40
1.58
14.51
25.59
34.57
41.40
46.09
48.58
48.85
47.10
43.82
39.69
35.42
31.49
28.08
25.06
22.15
19.10
15.81
12.40
9.13
6.25
3.91
2.08
0.53
-1.10
-3.22
-6.21
-10.39
-15.87
-22.39
-29.28
-35.34
-39.09
-39.21
-34.96
-26.53
-15.03
-2.11
10.49
21.53
30.33
36.79
41.06
43.30
43.60
42.06
38.89
34.52
29.52
24.44
19.67
15.36
11.45
7.77
4.16
0.61
-2.81
-5.93
-8.64
-10.91
-12.93
-15.01
-17.55
-20.98
-25.59
-31.46
-38.38
-45.74
-52.50
-57.35
-58.94
-56.31
-49.17
-38.13
-24.54
-10.13
3.48
15.14
24.35
31.10
35.58
37.99
38.43
37.02
34.05
30.05
25.68
21.62
18.27
15.69
13.67
11.83
9.90
7.80
5.66
3.73
2.23
1.26
0.73
0.38
-0.21
-1.52
-4.03
-8.09
-13.76
-20.64
-27.77
-33.74
-36.97
-36.18
-30.81
-21.30
-8.94
4.51
17.41
28.57
37.44
43.95
48.22
50.37
50.51
48.79
45.62
41.59
37.34
33.40
29.93
26.82
23.72
20.34
16.61
12.68
8.93
5.72
3.21
1.35
-0.25
-2.08
-4.68
-8.43
-13.48
-19.67
-26.57
-33.40
-39.13
-42.59
-42.72
-38.87
-31.08
-20.17
-7.53
5.24
16.77
26.21
33.31
38.20
41.15
42.39
42.01
40.11
36.90
32.77
28.24
23.89
20.13
17.09
14.61
12.34
9.87
6.97
3.64
0.10
-3.36
-6.52
-9.39
-12.20
-15.26
-18.80
-22.89
-27.45
-32.25
-37.02
-41.43
-45.00
-47.06
-46.81
-43.54
-36.95
-27.38
-15.88
-3.96
6.91
15.69
22.01
26.11
28.50
29.62
29.64
28.52
26.22
22.86
18.88
14.85
11.31
8.55
6.56
5.12
3.95
2.94
2.07
1.43
0.97
0.51
-0.36
-2.10
-5.04
-9.23
-14.39
-19.99
-25.50
-30.47
-34.65
-37.79
-39.51
-39.22
-36.28
-30.29
-21.46
-10.65
0.77
11.39
20.17
26.65
30.85
33.04
33.43
32.11
29.17
24.84
19.61
14.20
9.35
5.60
3.10
1.63
0.71
-0.21
-1.49
-3.22
-5.21
-7.16
-8.81
-10.14
-11.35
-12.76
-14.73
-17.46
-21.03
-25.37
-30.18
-34.88
-38.59
-40.19
-38.68
-33.51
-24.88
-13.81
-1.80
9.58
19.16
26.35
31.12
33.70
34.35
33.27
30.60
26.60
21.74
16.65
11.99
8.25
5.62
3.93
2.75
1.61
0.16
-1.72
-3.89
-6.10
-8.14
-9.91
-11.54
-13.29
-15.46
-18.31
-22.00
-26.44
-31.29
-35.88
-39.26
-40.38
-38.37
-32.88
-24.25
-13.51
-2.08
8.63
17.62
24.35
28.72
30.86
30.88
28.96
25.32
20.44
15.02
9.85
5.50
2.12
-0.59
-3.19
-6.13
-9.50
-12.98
-16.06
-18.32
-19.65
-20.30
-20.69
-21.29
-22.48
-24.55
-27.69
-31.86
-36.60
-40.85
-43.19
-42.16
-36.91
-27.62
-15.51
-2.44
9.73
19.67
26.76
30.93
32.36
31.28
27.95
22.89
16.90
11.05
6.39
3.51
2.37
2.30
2.30
1.43
-0.78
-4.24
-8.42
-12.61
-16.25
-19.12
-21.40
-23.61
-26.41
-30.35
-35.71
-42.22
-49.08
-54.98
-58.38
-57.94
-52.96
-43.62
-31.01
-16.79
-2.74
9.68
19.63
26.91
31.69
34.34
35.17
34.46
32.40
29.18
25.05
20.26
15.08
9.76
4.59
-0.12
-4.05
-6.94
-8.65
-9.33
-9.39
-9.40
-10.04
-11.85
-15.23
-20.25
-26.70
-33.94
-40.89
-46.16
-48.34
-46.35
-39.91
-29.64
-16.85
-3.14
10.12
22.07
32.31
40.66
46.94
50.87
52.21
50.99
47.64
42.93
37.69
32.60
27.92
23.60
19.40
15.16
10.91
6.93
3.57
1.10
-0.46
-1.44
-2.38
-4.00
-7.00
-11.90
-18.82
-27.22
-35.87
-42.95
-46.53
-45.12
-38.22
-26.54
-11.73
4.16
19.26
32.32
42.76
50.41
55.29
57.34
56.55
53.10
47.47
40.50
33.21
26.52
21.04
16.98
14.12
12.01
10.16
8.21
6.03
3.65
1.24
-1.12
-3.44
-5.89
-8.77
-12.40
-17.07
-22.91
-29.72
-36.85
-43.14
-47.10
-47.31
-42.87
-33.88
-21.39
-7.18
6.87
19.29
29.28
36.73
41.82
44.76
45.62
44.40
41.22
36.47
30.81
24.98
19.64
15.16
11.57
8.58
5.85
3.08
0.23
-2.50
-4.81
-6.42
-7.34
-7.86
-8.54
-10.00
-12.80
-17.20
-23.18
-30.32
-37.81
-44.46
-48.87
-49.67
-46.03
-37.94
-26.38
-13.03
0.20
11.83
21.05
27.81
32.44
35.30
36.58
36.25
34.35
31.15
27.16
23.05
19.35
16.30
13.77
11.40
8.81
5.77
2.35
-1.16
-4.41
-7.13
-9.28
-11.10
-12.97
-15.44
-18.96
-23.83
-29.98
-36.86
-43.38
-48.07
-49.47
-46.57
-39.26
-28.35
-15.34
-1.94
10.49
21.15
29.83
36.58
41.48
44.55
45.73
45.07
42.78
39.33
35.26
31.09
27.22
23.81
20.82
18.06
15.34
12.52
9.65
6.88
4.38
2.20
0.25
-1.72
-3.97
-6.76
-10.26
-14.56
-19.66
-25.32
-30.98
-35.65
-38.10
-37.18
-32.28
-23.56
-11.99
0.96
13.79
25.32
34.95
42.53
48.21
52.21
54.71
55.81
55.63
54.38
52.38
50.02
47.72
45.78
44.30
43.19
42.14
40.85
39.05
36.68
33.78
30.51
26.97
23.24
19.36
15.42
11.53
7.84
4.42
1.22
-1.93
-5.25
-8.84
-12.44
-15.47
-17.07
-16.54
-13.58
-8.52
-2.20
4.38
10.43
15.66
20.18
24.31
28.25
31.89
34.77
36.31
35.98
33.54
29.13
23.20
16.44
9.58
3.26
-2.13
-6.44
-9.78
-12.37
-14.49
-16.43
-18.38
-20.42
-22.42
-24.08
-25.03
-24.93
-23.68
-21.43
-18.58
-15.64
-13.19
-11.78
-11.77
-13.14
-15.21
-16.55
-15.18
-9.13
2.79
20.38
41.84
64.33
84.73
100.56
110.50
114.41
113.01
107.49
99.30
90.03
81.26
74.07
68.55
63.41
56.21
44.02
24.60
-2.60
-36.18
-73.08
-109.54
-142.08
-168.21
-186.75
-197.81
-202.52
-202.66
-200.14
-196.42
-192.12
-186.95
-180.13
-171.09
-159.92
-147.59
-135.42
-124.42
-114.69
-105.32
-94.89
-82.19
-66.81
-49.30
-31.04
-13.72
0.99
11.79
17.86
19.02
15.78
9.36
1.49
-5.85
-10.98
-12.82
-11.20
-6.79
-0.89
4.98
9.56
12.29
13.60
14.87
17.85
23.96
33.56
45.65
58.26
69.19
76.85
80.66
81.09
79.24
76.37
73.59
71.63
70.69
70.29
69.34
66.52
60.82
52.21
41.78
31.40
22.96
17.63
15.60
16.27
18.86
22.88
28.29
35.29
43.98
54.03
64.72
74.97
83.62
89.61
92.12
90.71
85.40
76.60
64.97
51.30
36.31
20.62
4.81
-10.56
-24.98
-38.05
-49.67
-60.04
-69.42
-77.98
-85.49
-91.36
-94.83
-95.39
-93.04
-88.29
-82.03
-75.09
-68.00
-60.98
-54.03
-47.10
-40.30
-33.86
-27.98
-22.80
-18.24
-14.13
-10.32
-6.76
-3.61
-1.20
0.04
-0.35
-2.69
-7.08
-13.26
-20.70
-28.65
-36.42
-43.56
-49.98
-55.91
-61.63
-67.17
-72.09
-75.54
-76.51
-74.20
-68.40
-59.56
-48.72
-37.18
-26.22
-16.83
-9.60
-4.79
-2.34
-2.04
-3.55
-6.46
-10.38
-15.05
-20.50
-27.01
-34.99
-44.70
-55.98
-68.01
-79.45
-88.61
-93.87
-94.14
-89.14
-79.47
-66.49
-52.02
-37.91
-25.71
-16.40
-10.29
-7.01
-5.66
-5.01
-3.81
-1.11
3.50
9.80
17.12
24.63
31.69
38.05
43.70
48.74
53.13
56.63
59.00
60.13
60.23
59.68
58.93
58.20
57.41
56.21
54.18
51.14
47.27
43.13
39.40
36.58
34.70
33.35
31.84
29.51
25.98
21.18
15.36
9.02
2.87
-2.19
-5.17
-5.28
-2.15
3.91
12.01
20.92
29.51
37.01
43.07
47.56
50.39
51.39
50.39
47.41
42.83
37.36
31.86
27.08
23.38
20.66
18.52
16.43
14.08
11.47
8.85
6.49
4.47
2.58
0.33
-2.74
-6.93
-12.17
-17.95
-23.39
-27.37
-28.76
-26.76
-21.11
-12.29
-1.36
10.32
21.51
31.39
39.60
46.07
50.75
53.54
54.33
53.24
50.70
47.45
44.29
41.79
40.08
38.87
37.62
35.79
33.16
29.81
26.19
22.81
20.11
18.21
16.91
15.74
14.15
11.60
7.72
2.36
-4.30
-11.75
-19.06
-24.99
-28.27
-27.94
-23.75
-16.32
-6.99
2.58
11.00
17.49
21.96
24.78
26.34
26.83
26.08
23.86
20.11
15.14
9.57
4.08
-0.85
-5.13
-8.98
-12.69
-16.44
-20.12
-23.45
-26.12
-28.01
-29.28
-30.28
-31.45
-33.09
-35.31
-37.97
-40.86
-43.79
-46.67
-49.40
-51.66
-52.84
-52.06
-48.51
-41.82
-32.39
-21.41
-10.52
-1.25
5.46
9.49
11.43
12.19
12.50
12.69
12.56
11.62
9.37
5.55
0.26
-6.07
-12.72
-18.67
-22.56
-22.73
-17.62
-6.41
10.32
30.26
49.85
65.36
74.26
76.01
72.06
64.89
56.72
48.69
40.75
32.39
23.56
15.14
8.71
5.73
6.70
10.81
16.22
20.98
23.83
24.66
24.38
24.29
25.35
27.64
30.42
32.43
32.52
30.19
25.72
20.07
14.37
9.49
5.69
2.67
-0.22
-3.51
-7.45
-11.94
-16.67
-21.29
-25.39
-28.44
-29.65
-28.13
-23.27
-15.11
-4.64
6.49
16.53
24.30
29.64
33.22
36.02
38.66
41.07
42.66
42.82
41.38
38.84
36.04
33.75
32.16
30.83
28.98
25.87
21.22
15.34
8.95
2.87
-2.36
-6.59
-10.11
-13.34
-16.65
-20.14
-23.67
-26.98
-29.94
-32.59
-35.17
-37.88
-40.77
-43.63
-46.20
-48.33
-50.10
-51.68
-53.05
-53.84
-53.36
-50.91
-46.19
-39.56
-31.96
-24.60
-18.47
-14.11
-11.58
-10.60
-10.69
-11.36
-12.05
-12.20
-11.38
-9.42
-6.46
-2.90
0.77
4.18
7.14
9.63
11.72
13.46
14.89
16.05
16.99
17.81
18.52
19.08
19.36
19.19
18.42
17.03
15.15
13.18
11.74
11.53
13.13
16.76
22.17
28.66
35.31
41.26
45.98
49.30
51.35
52.30
52.23
51.07
48.72
45.18
40.74
35.90
31.21
27.06
23.44
19.99
16.21
11.72
6.47
0.75
-4.95
-10.18
-14.70
-18.55
-21.95
-25.24
-28.72
-32.64
-37.10
-42.00
-46.91
-51.06
-53.49
-53.32
-50.14
-44.17
-36.26
-27.59
-19.30
-12.22
-6.72
-2.85
-0.53
0.35
-0.12
-1.76
-4.25
-7.11
-9.89
-12.27
-14.16
-15.71
-17.19
-18.84
-20.82
-23.14
-25.71
-28.43
-31.20
-34.05
-37.09
-40.51
-44.49
-49.09
-54.15
-59.31
-64.03
-67.79
-70.18
-70.89
-69.77
-66.72
-61.81
-55.30
-47.68
-39.68
-32.04
-25.31
-19.76
-15.34
-11.85
-9.03
-6.69
-4.63
-2.62
-0.37
2.36
5.69
9.61
13.98
18.77
24.02
29.82
36.13
42.60
48.53
53.13
55.74
56.10
54.37
50.92
46.08
39.94
32.48
23.82
14.48
5.46
-1.88
-6.21
-6.60
-2.80
4.73
14.86
26.10
36.86
45.83
52.24
55.89
57.03
56.10
53.41
49.04
42.93
35.13
25.97
16.03
6.00
-3.59
-12.58
-21.12
-29.50
-37.94
-46.38
-54.44
-61.46
-66.73
-69.65
-70.01
-68.04
-64.51
-60.48
-57.12
-55.39
-55.87
-58.62
-63.14
-68.43
-73.11
-75.78
-75.30
-71.24
-63.95
-54.40
-43.87
-33.43
-23.76
-15.08
-7.43
-0.84
4.55
8.61
11.39
13.29
14.87
16.67
18.85
21.12
22.76
23.02
21.39
17.97
13.43
8.80
5.16
3.18
2.92
3.81
4.84
4.87
2.97
-1.40
-8.09
-16.30
-24.66
-31.49
-35.24
-34.91
-30.36
-22.38
-12.37
-1.87
7.95
16.55
23.96
30.55
36.55
41.95
46.39
49.48
50.99
51.09
50.23
49.03
48.00
47.37
47.12
47.01
46.77
46.20
45.17
43.62
41.59
39.16
36.47
33.60
30.51
26.94
22.44
16.54
8.93
-0.41
-11.16
-22.65
-33.95
-43.88
-51.03
-54.07
-52.01
-44.67
-32.86
-18.30
-3.10
10.85
22.37
31.14
37.45
41.77
44.46
45.61
45.22
43.41
40.51
37.05
33.60
30.49
27.79
25.34
22.86
20.24
17.56
15.07
13.02
11.54
10.50
9.59
8.44
6.80
4.60
1.89
-1.17
-4.42
-7.68
-10.78
-13.56
-15.93
-17.88
-19.56
-21.28
-23.43
-26.31
-29.97
-34.04
-37.70
-39.90
-39.61
-36.28
-29.98
-21.41
-11.63
-1.72
7.52
15.63
22.42
27.78
31.63
33.90
34.63
34.07
32.67
30.92
29.25
27.93
26.99
26.34
25.81
25.28
24.69
24.03
23.25
22.21
20.70
18.49
15.44
11.64
7.40
3.16
-0.73
-4.13
-7.19
-10.31
-13.92
-18.36
-23.74
-29.83
-36.00
-41.31
-44.66
-45.02
-41.84
-35.23
-26.04
-15.57
-5.17
4.14
11.86
17.95
22.54
25.72
27.50
27.91
27.16
25.63
23.74
21.78
19.79
17.60
15.02
12.02
8.77
5.51
2.43
-0.49
-3.40
-6.52
-9.95
-13.65
-17.47
-21.20
-24.75
-28.06
-31.19
-34.22
-37.27
-40.52
-44.17
-48.39
-53.12
-57.92
-61.97
-64.12
-63.35
-59.08
-51.51
-41.54
-30.49
-19.58
-9.59
-0.70
7.29
14.61
21.30
27.11
31.74
35.08
37.39
39.15
40.92
43.00
45.29
47.40
48.83
49.23
48.50
46.83
44.45
41.56
38.20
34.32
29.90
25.03
19.96
15.02
10.48
6.42
2.74
-0.84
-4.62
-8.87
-13.68
-18.84
-23.81
-27.74
-29.67
-28.81
-24.90
-18.35
-10.19
-1.75
5.80
11.79
16.14
19.15
21.22
22.56
23.14
22.79
21.42
19.16
16.31
13.29
10.42
7.88
5.69
3.75
1.98
0.26
-1.47
-3.24
-5.05
-6.83
-8.50
-9.95
-11.16
-12.21
-13.29
-14.63
-16.46
-18.94
-22.13
-25.90
-29.81
-33.11
-34.81
-33.95
-29.99
-23.03
-13.92
-4.02
5.23
12.73
17.92
20.85
21.92
21.67
20.56
18.90
16.83
14.39
11.59
8.41
4.95
1.35
-2.20
-5.54
-8.57
-11.33
-14.03
-16.85
-19.97
-23.40
-27.00
-30.53
-33.73
-36.35
-38.26
-39.38
-39.80
-39.76
-39.71
-40.10
-41.15
-42.58
-43.48
-42.56
-38.65
-31.20
-20.63
-8.26
4.25
15.44
24.48
31.26
36.16
39.62
41.97
43.30
43.65
43.09
41.85
40.22
38.46
36.72
34.95
33.03
30.77
28.06
24.90
21.40
17.71
14.00
10.36
6.84
3.43
0.15
-2.92
-5.69
-8.12
-10.34
-12.64
-15.44
-19.11
-23.70
-28.80
-33.48
-36.52
-36.77
-33.61
-27.18
-18.37
-8.51
1.09
9.53
16.38
21.64
25.48
27.98
29.15
29.10
28.06
26.47
24.78
23.27
21.92
20.47
18.62
16.22
13.45
10.68
8.33
6.62
5.45
4.45
3.17
1.29
-1.23
-4.14
-7.10
-9.75
-11.96
-13.80
-15.58
-17.74
-20.76
-24.96
-30.29
-36.23
-41.63
-45.06
-45.15
-41.16
-33.30
-22.65
-10.86
0.52
10.43
18.43
24.58
29.10
32.12
33.66
33.75
32.62
30.68
28.45
26.30
24.35
22.45
20.32
17.77
14.83
11.76
8.94
6.73
5.27
4.50
4.11
3.74
3.04
1.83
0.14
-1.82
-3.82
-5.73
-7.63
-9.83
-12.75
-16.75
-21.98
-28.31
-35.36
-42.48
-48.89
-53.70
-56.12
-55.62
-52.08
-45.80
-37.48
-28.01
-18.39
-9.63
-2.71
1.55
2.70
0.85
-3.18
-7.87
-11.09
-10.41
-3.61
10.58
31.67
57.03
82.20
102.03
112.35
111.43
100.53
83.29
64.19
46.88
33.13
22.87
14.99
8.41
2.60
-2.43
-6.68
-10.63
-15.37
-22.05
-31.10
-41.67
-51.67
-58.45
-59.97
-55.69
-46.76
-35.50
-24.32
-14.78
-7.24
-1.14
4.37
9.71
14.66
18.57
20.76
20.92
19.23
16.20
12.41
8.28
4.08
-0.04
-3.89
-7.24
-9.84
-11.59
-12.60
-13.25
-14.04
-15.38
-17.49
-20.25
-23.34
-26.37
-29.08
-31.48
-33.83
-36.59
-40.21
-44.96
-50.66
-56.62
-61.61
-64.17
-62.98
-57.32
-47.32
-33.94
-18.72
-3.25
11.13
23.60
33.80
41.68
47.30
50.77
52.28
52.11
50.68
48.46
45.83
43.02
40.03
36.80
33.27
29.62
26.19
23.36
21.36
20.04
18.96
17.46
15.06
11.57
7.17
2.32
-2.55
-7.15
-11.42
-15.57
-19.94
-24.95
-30.99
-38.14
-45.99
-53.49
-58.97
-60.66
-57.21
-48.29
-34.83
-18.73
-2.23
12.76
25.18
34.80
41.94
47.06
50.42
52.09
52.11
50.63
48.08
44.93
41.65
38.47
35.36
32.17
28.79
25.24
21.77
18.76
16.51
15.17
14.52
14.04
13.01
10.75
6.96
1.78
-4.16
-10.04
-15.13
-19.11
-22.17
-24.79
-27.57
-30.96
-35.21
-40.39
-46.38
-52.72
-58.50
-62.32
-62.58
-58.06
-48.44
-34.65
-18.50
-2.20
12.42
24.32
33.19
39.22
42.73
44.02
43.39
41.26
38.11
34.42
30.49
26.37
22.03
17.43
12.71
8.18
4.22
1.14
-0.94
-2.09
-2.60
-2.92
-3.48
-4.61
-6.40
-8.71
-11.20
-13.56
-15.60
-17.38
-19.19
-21.46
-24.58
-28.74
-33.71
-38.71
-42.48
-43.57
-40.82
-33.87
-23.36
-10.77
2.06
13.55
22.78
29.55
34.16
37.05
38.53
38.79
37.93
36.07
33.47
30.38
27.05
23.67
20.32
17.06
13.95
11.05
8.41
6.06
3.90
1.77
-0.55
-3.23
-6.33
-9.77
-13.32
-16.77
-19.95
-22.91
-25.91
-29.36
-33.65
-38.84
-44.44
-49.32
-51.89
-50.63
-44.69
-34.30
-20.76
-6.04
7.89
19.64
28.69
35.20
39.68
42.57
44.10
44.34
43.35
41.32
38.53
35.30
31.85
28.27
24.60
20.82
17.02
13.29
9.73
6.41
3.35
0.55
-2.02
-4.40
-6.69
-9.04
-11.61
-14.57
-18.03
-22.11
-26.87
-32.27
-37.97
-43.16
-46.61
-46.90
-42.98
-34.64
-22.69
-8.79
5.09
17.29
26.93
33.86
38.48
41.33
42.81
43.10
42.28
40.41
37.66
34.28
30.54
26.70
22.93
19.35
15.96
12.74
9.60
6.50
3.42
0.42
-2.39
-4.90
-7.04
-8.91
-10.67
-12.58
-14.91
-17.93
-21.87
-26.79
-32.44
-38.01
-42.19
-43.46
-40.53
-33.01
-21.56
-7.86
6.03
18.32
28.00
34.90
39.43
42.18
43.53
43.64
42.52
40.18
36.78
32.63
28.11
23.64
19.61
16.25
13.60
11.52
9.65
7.59
5.04
1.87
-1.84
-5.91
-10.15
-14.46
-18.80
-23.14
-27.48
-31.87
-36.49
-41.54
-47.05
-52.51
-56.78
-58.27
-55.45
-47.59
-35.17
-19.84
-3.90
10.52
22.07
30.40
35.85
39.05
40.51
40.48
39.09
36.53
33.08
29.12
24.93
20.69
16.42
12.11
7.80
3.61
-0.32
-3.86
-6.99
-9.76
-12.25
-14.56
-16.73
-18.72
-20.48
-21.98
-23.27
-24.54
-26.21
-28.86
-33.03
-38.83
-45.71
-52.27
-56.58
-56.78
-51.79
-41.79
-28.21
-13.26
0.85
12.54
21.12
26.71
29.83
31.06
30.87
29.53
27.28
24.36
21.10
17.79
14.69
11.92
9.48
7.24
5.08
2.87
0.57
-1.80
-4.22
-6.65
-9.09
-11.51
-13.85
-15.98
-17.84
-19.41
-20.92
-22.78
-25.57
-29.66
-34.96
-40.60
-44.99
-46.24
-42.80
-34.13
-21.00
-5.30
10.60
24.62
35.47
42.78
46.96
48.78
48.96
48.01
46.10
43.28
39.53
34.89
29.57
23.98
18.74
14.41
11.24
9.13
7.68
6.38
4.68
2.23
-1.00
-4.66
-8.30
-11.71
-14.95
-18.23
-21.81
-26.01
-31.15
-37.35
-44.43
-51.67
-57.91
-61.27
-59.30
-50.01
-33.21
-11.21
11.77
30.96
42.82
45.79
40.79
30.58
19.54
11.87
9.44
11.69
16.19
22.49
29.98
37.07
41.29
40.03
31.17
14.32
-8.48
-33.10
-54.33
-67.81
-71.10
-64.29
-49.90
-32.10
-15.30
-2.66
4.61
7.03
5.66
1.36
-5.43
-14.40
-24.78
-34.83
-41.90
-43.27
-37.29
-24.42
-7.02
11.53
28.07
40.65
48.89
53.62
56.08
57.23
57.32
56.15
53.52
49.54
44.64
39.39
34.23
29.37
24.84
20.62
16.76
13.40
10.70
8.68
7.14
5.69
3.93
1.54
-1.53
-5.11
-8.93
-12.67
-16.22
-19.67
-23.39
-27.93
-33.82
-41.19
-49.54
-57.49
-63.09
-64.30
-59.78
-49.45
-34.55
-17.30
-0.09
15.19
27.51
36.64
42.79
46.26
47.32
46.31
43.77
40.43
37.03
33.99
31.29
28.57
25.32
21.32
16.76
12.18
8.26
5.41
3.63
2.46
1.27
-0.47
-2.94
-5.97
-9.11
-11.93
-14.21
-16.04
-17.79
-20.04
-23.38
-28.29
-34.86
-42.54
-50.05
-55.48
-56.77
-52.40
-42.07
-26.91
-9.17
8.50
23.95
35.95
44.31
49.45
51.97
52.31
50.82
47.85
43.88
39.48
35.08
30.90
26.86
22.78
18.55
14.25
10.19
6.72
4.08
2.21
0.78
-0.75
-2.87
-5.81
-9.44
-13.31
-16.83
-19.62
-21.66
-23.31
-25.27
-28.25
-32.76
-38.84
-45.86
-52.55
-57.11
-57.70
-52.94
-42.54
-27.48
-9.86
7.72
23.01
34.66
42.37
46.66
48.31
48.01
46.15
43.02
38.89
34.16
29.30
24.65
20.36
16.40
12.62
8.93
5.42
2.24
-0.42
-2.55
-4.33
-6.15
-8.39
-11.29
-14.81
-18.65
-22.38
-25.63
-28.26
-30.52
-32.99
-36.37
-41.08
-46.90
-52.71
-56.66
-56.72
-51.42
-40.54
-25.29
-7.93
8.99
23.45
34.41
41.81
46.11
47.92
47.66
45.64
42.16
37.64
32.64
27.63
23.00
18.86
15.14
11.66
8.25
4.84
1.41
-2.00
-5.31
-8.48
-11.46
-14.22
-16.75
-19.06
-21.24
-23.46
-25.97
-29.13
-33.23
-38.42
-44.39
-50.21
-54.37
-55.10
-50.93
-41.35
-27.18
-10.38
6.49
21.16
32.25
39.49
43.39
44.75
44.26
42.27
39.03
34.80
29.96
24.98
20.26
15.99
12.15
8.56
5.01
1.29
-2.73
-7.11
-11.74
-16.40
-20.77
-24.61
-27.88
-30.80
-33.78
-37.30
-41.72
-47.22
-53.77
-61.02
-68.19
-74.01
-76.83
-75.07
-67.86
-55.47
-39.46
-22.18
-5.99
7.47
17.65
24.92
30.04
33.64
35.93
36.85
36.30
34.43
31.69
28.68
25.95
23.90
22.64
22.06
21.90
21.86
21.69
21.19
20.27
18.90
17.04
14.63
11.56
7.79
3.29
-1.90
-7.79
-14.44
-21.88
-29.87
-37.61
-43.76
-46.71
-45.13
-38.55
-27.61
-13.89
0.61
14.15
25.58
34.46
40.92
45.25
47.78
48.66
47.98
45.84
42.43
38.16
33.58
29.28
25.74
23.15
21.39
20.13
18.99
17.71
16.25
14.66
13.01
11.31
9.48
7.45
5.10
2.29
-1.25
-5.96
-12.27
-20.36
-29.74
-39.09
-46.41
-49.61
-47.21
-38.91
-25.83
-10.08
5.91
20.01
30.94
38.23
42.13
43.30
42.52
40.53
37.90
35.00
31.99
28.81
25.33
21.47
17.35
13.20
9.21
5.41
1.64
-2.33
-6.73
-11.62
-16.80
-21.86
-26.45
-30.43
-33.96
-37.34
-40.97
-45.30
-50.66
-56.88
-62.85
-66.90
-67.14
-61.94
-50.47
-33.17
-11.95
10.36
31.04
48.63
62.50
72.64
79.22
82.55
82.87
80.09
74.18
65.77
56.99
49.80
45.57
44.58
46.26
49.14
50.71
48.07
39.04
23.80
3.37
-20.51
-45.74
-69.75
-87.83
-94.74
-88.70
-77.57
-66.06
-56.64
-48.82
-42.73
-37.85
-32.96
-26.75
-18.17
-6.50
9.17
27.98
47.55
64.66
76.86
83.03
83.27
78.47
70.15
60.56
51.11
42.35
34.23
26.86
20.50
15.34
11.30
8.24
6.46
5.98
6.61
8.01
10.05
12.70
15.89
19.42
23.13
27.13
31.35
35.50
38.96
40.91
40.40
36.58
29.18
18.84
7.35
-3.02
-10.20
-13.23
-12.61
-10.10
-7.93
-7.85
-10.55
-15.64
-22.34
-30.23
-39.54
-51.06
-65.41
-82.48
-101.18
-119.85
-136.78
-150.97
-162.23
-171.13
-178.57
-185.52
-192.77
-200.81
-209.62
-218.33
-225.08
-227.16
-221.48
-205.46
-177.89
-139.72
-93.93
-45.04
2.00
42.90
75.08
98.21
114.00
125.38
135.07
144.81
154.93
164.60
172.45
177.25
178.45
176.09
170.47
161.40
148.51
131.57
111.08
88.23
64.60
41.67
20.44
1.24
-16.48
-33.07
-48.37
-61.39
-70.99
-76.53
-77.88
-75.08
-65.75
-49.27
-27.54
-4.84
14.53
27.72
33.77
33.48
28.92
22.49
15.67
10.25
5.87
2.45
0.26
-0.57
-0.14
1.24
3.11
4.82
6.09
7.08
7.46
7.64
7.96
8.67
9.96
11.86
14.07
16.12
17.46
17.89
17.56
16.70
15.59
14.46
13.41
12.24
10.65
8.30
5.17
1.57
-2.05
-5.21
-7.43
-8.48
-8.42
-7.60
-6.54
-5.76
-5.50
-5.89
-6.84
-8.11
-9.40
-10.36
-10.69
-10.19
-8.75
-6.38
-3.28
0.25
3.86
7.25
10.22
12.69
14.64
16.11
17.17
17.89
18.32
18.52
18.47
18.12
17.37
16.19
14.61
12.74
10.77
8.75
6.64
4.27
1.51
-1.61
-4.79
-7.56
-9.48
-10.36
-10.36
-9.94
-9.67
-9.93
-10.78
-11.96
-13.00
-13.49
-13.24
-12.28
-10.83
-9.11
-7.22
-5.07
-2.46
0.72
4.34
8.02
11.17
13.23
13.90
13.27
11.85
10.40
9.73
10.54
13.31
18.25
25.20
33.40
41.35
46.91
47.83
42.57
31.01
14.76
-3.40
-20.42
-34.04
-43.30
-48.36
-49.84
-48.05
-42.90
-34.13
-22.03
-7.71
6.95
19.98
30.10
37.13
41.93
45.94
50.48
56.29
63.46
71.55
80.10
88.80
97.69
106.94
116.71
126.83
136.80
145.77
152.78
157.09
158.39
157.03
153.88
150.11
146.80
144.50
143.07
141.67
139.02
133.82
125.08
112.28
95.37
74.80
51.51
26.99
3.19
-17.94
-35.25
-49.19
-62.12
-77.66
-99.34
-128.96
-165.69
-206.15
-245.69
-280.12
-306.90
-325.52
-336.79
-341.90
-341.66
-336.45
-326.74
-313.61
-298.83
-284.39
-271.78
-261.43
-252.72
-244.53
-235.87
-226.11
-214.77
-201.12
-183.87
-161.62
-133.62
-100.54
-64.66
-29.26
2.38
28.07
47.08
59.99
68.19
73.39
77.28
81.43
87.11
95.04
105.13
116.52
127.79
137.51
144.65
148.87
150.42
149.99
148.37
146.28
144.18
142.26
140.39
138.30
135.64
132.19
127.93
122.92
117.23
110.75
103.18
94.18
83.56
71.49
58.53
45.46
33.04
21.77
11.78
2.97
-4.89
-12.01
-18.53
-24.57
-30.14
-35.04
-38.75
-40.44
-39.22
-34.51
-26.42
-15.80
-4.10
7.12
16.63
23.83
28.68
31.51
32.76
32.79
31.94
30.45
28.58
26.49
24.24
21.74
18.85
15.52
11.85
8.13
4.70
1.80
-0.57
-2.64
-4.76
-7.17
-9.94
-12.95
-15.95
-18.74
-21.20
-23.32
-25.20
-26.97
-28.86
-31.07
-33.68
-36.47
-38.78
-39.56
-37.78
-32.79
-24.70
-14.40
-3.31
7.14
15.93
22.69
27.56
30.94
33.21
34.58
35.12
34.84
33.79
32.06
29.80
27.12
24.08
20.77
17.24
13.58
9.88
6.20
2.54
-1.10
-4.74
-8.35
-11.86
-15.19
-18.31
-21.27
-24.14
-27.02
-30.04
-33.30
-36.94
-41.00
-45.30
-49.28
-52.00
-52.32
-49.32
-42.65
-32.79
-20.90
-8.48
3.12
13.08
21.14
27.45
32.29
35.86
38.26
39.57
39.95
39.65
38.95
37.98
36.75
35.15
33.08
30.63
28.06
25.72
23.88
22.57
21.60
20.60
19.26
17.42
15.13
12.57
9.91
7.18
4.27
0.94
-3.11
-8.06
-13.89
-20.19
-26.13
-30.56
-32.31
-30.56
-25.23
-17.06
-7.45
1.99
9.92
15.61
18.98
20.45
20.63
20.04
19.06
17.89
16.62
15.35
14.19
13.19
12.34
11.59
10.81
9.91
8.87
7.76
6.67
5.66
4.67
3.62
2.46
1.23
0.09
-0.78
-1.29
-1.57
-1.96
-2.94
-4.84
-7.60
-10.60
-12.67
-12.44
-8.74
-1.08
10.03
23.22
36.62
48.39
57.18
62.35
64.03
62.97
60.23
56.93
53.90
51.53
49.84
48.53
47.18
45.24
41.98
36.45
27.53
14.32
-3.57
-25.64
-50.54
-76.30
-100.75
-121.84
-137.90
-147.78
-151.09
-148.47
-141.65
-133.18
-125.77
-121.40
-120.59
-122.22
-123.92
-122.99
-117.37
-106.27
-90.39
-71.46
-51.67
-32.98
-16.73
-3.48
6.81
14.57
20.37
24.76
28.23
31.17
33.91
36.69
39.62
42.67
45.69
48.43
50.70
52.38
53.47
54.02
54.08
53.58
52.44
50.55
47.90
44.62
40.93
37.05
33.12
29.05
24.61
19.44
13.31
6.37
-0.65
-6.51
-9.78
-9.35
-4.90
2.92
12.65
22.45
30.66
36.23
38.78
38.52
35.93
31.59
25.97
19.47
12.38
4.93
-2.71
-10.35
-17.77
-24.68
-30.75
-35.69
-39.32
-41.71
-43.10
-43.86
-44.40
-44.98
-45.74
-46.69
-47.76
-48.85
-49.86
-50.73
-51.48
-52.27
-53.39
-55.14
-57.64
-60.56
-63.05
-63.84
-61.63
-55.55
-45.51
-32.31
-17.38
-2.32
11.54
23.44
33.14
40.76
46.55
50.67
53.22
54.31
54.16
53.11
51.55
49.80
48.01
46.17
44.13
41.76
38.97
35.79
32.35
28.81
25.37
22.12
19.10
16.24
13.45
10.59
7.62
4.54
1.33
-2.07
-5.83
-10.11
-14.79
-19.38
-22.96
-24.43
-22.98
-18.38
-11.18
-2.53
6.27
14.17
20.60
25.51
29.10
31.61
33.19
33.89
33.72
32.79
31.31
29.51
27.59
25.69
23.85
22.04
20.19
18.25
16.19
14.04
11.85
9.70
7.65
5.71
3.86
2.08
0.38
-1.23
-2.77
-4.35
-6.22
-8.72
-12.09
-16.27
-20.71
-24.42
-26.19
-25.01
-20.48
-12.96
-3.51
6.46
15.64
23.16
28.70
32.39
34.56
35.55
35.58
34.76
33.16
30.90
28.12
25.01
21.75
18.49
15.35
12.39
9.64
7.10
4.73
2.53
0.52
-1.25
-2.75
-3.98
-5.03
-6.04
-7.12
-8.41
-9.98
-11.92
-14.29
-17.03
-19.85
-22.16
-23.18
-22.22
-19.00
-13.85
-7.65
-1.46
3.83
7.81
10.55
12.38
13.61
14.40
14.70
14.43
13.64
12.51
11.36
10.45
9.86
9.47
9.02
8.20
6.80
4.80
2.34
-0.34
-2.95
-5.27
-7.23
-8.95
-10.69
-12.84
-15.76
-19.66
-24.43
-29.58
-34.22
-37.27
-37.77
-35.18
-29.65
-21.96
-13.31
-4.93
2.27
7.91
12.05
14.99
16.98
18.07
18.23
17.47
15.97
14.12
12.34
10.92
9.83
8.79
7.37
5.26
2.36
-1.15
-4.88
-8.45
-11.57
-14.14
-16.21
-17.95
-19.58
-21.32
-23.41
-26.04
-29.25
-32.84
-36.22
-38.49
-38.65
-35.94
-30.20
-21.98
-12.38
-2.72
5.93
12.99
18.37
22.32
25.10
26.82
27.49
27.07
25.67
23.61
21.27
19.03
17.06
15.30
13.55
11.53
9.11
6.36
3.52
0.89
-1.34
-3.15
-4.67
-6.08
-7.56
-9.18
-11.05
-13.24
-15.89
-19.03
-22.45
-25.54
-27.41
-27.13
-24.09
-18.34
-10.57
-1.93
6.35
13.40
18.84
22.74
25.45
27.26
28.34
28.68
28.24
27.03
25.15
22.84
20.30
17.70
15.11
12.50
9.84
7.11
4.37
1.68
-0.86
-3.24
-5.50
-7.69
-9.86
-12.03
-14.21
-16.45
-18.92
-21.83
-25.32
-29.29
-33.24
-36.26
-37.27
-35.37
-30.18
-22.14
-12.29
-2.04
7.36
15.11
20.98
25.19
28.11
30.00
30.95
30.90
29.85
27.92
25.39
22.61
19.88
17.36
15.05
12.83
10.54
8.07
5.40
2.60
-0.22
-2.87
-5.25
-7.26
-8.97
-10.54
-12.22
-14.31
-17.03
-20.44
-24.28
-27.90
-30.31
-30.48
-27.70
-21.85
-13.57
-4.01
5.48
13.84
20.51
25.39
28.68
30.55
31.06
30.21
28.10
25.07
21.61
18.22
15.21
12.67
10.44
8.33
6.22
4.07
1.90
-0.25
-2.40
-4.50
-6.48
-8.25
-9.82
-11.28
-12.89
-14.93
-17.60
-20.99
-25.06
-29.62
-34.33
-38.57
-41.48
-42.11
-39.68
-34.00
-25.57
-15.49
-5.13
4.35
12.24
18.37
22.88
26.04
28.06
29.04
29.06
28.25
26.82
25.00
23.01
20.99
19.02
17.13
15.35
13.71
12.24
10.98
9.88
8.79
7.50
5.84
3.73
1.25
-1.41
-4.08
-6.64
-9.12
-11.70
-14.60
-18.08
-22.20
-26.76
-31.17
-34.47
-35.56
-33.60
-28.32
-20.23
-10.51
-0.59
8.29
15.44
20.74
24.47
26.95
28.43
28.99
28.65
27.52
25.84
23.91
21.95
20.02
18.03
15.82
13.31
10.63
8.11
6.14
4.95
4.47
4.28
3.83
2.64
0.56
-2.19
-5.09
-7.58
-9.32
-10.35
-11.05
-11.97
-13.61
-16.26
-19.89
-24.17
-28.43
-31.80
-33.37
-32.43
-28.70
-22.43
-14.36
-5.49
3.16
10.81
17.01
21.61
24.67
26.37
26.89
26.49
25.41
23.92
22.20
20.34
18.31
16.02
13.38
10.44
7.40
4.63
2.49
1.21
0.75
0.84
1.03
0.95
0.39
-0.64
-1.92
-3.22
-4.32
-5.21
-6.00
-6.91
-8.19
-9.99
-12.24
-14.59
-16.36
-16.74
-14.97
-10.66
-3.92
4.57
13.80
22.65
30.18
35.79
39.23
40.59
40.16
38.38
35.74
32.76
29.84
27.23
24.97
22.93
20.93
18.84
16.66
14.54
12.74
11.52
11.04
11.23
11.76
12.04
11.38
9.23
5.41
0.23
-5.62
-11.29
-16.15
-19.92
-22.81
-25.33
-28.08
-31.45
-35.42
-39.44
-42.48
-43.32
-40.99
-35.14
-26.27
-15.60
-4.68
5.11
12.89
18.30
21.40
22.29
21.08
17.88
12.94
6.77
0.10
-6.24
-11.56
-15.39
-17.55
-18.20
-17.74
-16.77
-15.91
-15.69
-16.36
-17.86
-19.91
-22.12
-24.17
-25.92
-27.44
-28.97
-30.94
-33.80
-37.94
-43.41
-49.70
-55.59
-59.46
-59.67
-55.28
-46.50
-34.74
-22.12
-10.67
-1.57
5.22
10.72
16.34
23.20
31.77
41.79
52.51
62.97
72.24
79.63
85.00
88.88
92.51
97.57
105.47
116.51
129.29
140.59
146.05
141.40
124.05
94.22
55.38
13.56
-24.19
-51.76
-65.68
-65.90
-55.43
-39.15
-22.20
-8.73
-1.11
0.24
-3.50
-9.96
-16.31
-20.04
-19.53
-14.49
-5.95
4.20
13.84
21.15
25.06
25.30
22.28
17.02
10.79
4.80
-0.06
-3.42
-5.31
-5.80
-4.72
-1.72
3.34
9.72
15.67
18.78
16.87
8.99
-4.19
-20.67
-37.96
-53.98
-67.40
-77.47
-83.72
-85.88
-84.13
-79.47
-73.65
-68.65
-65.70
-64.70
-64.33
-62.88
-59.37
-54.16
-49.00
-46.17
-47.46
-53.47
-63.60
-76.57
-91.13
-106.45
-122.02
-137.23
-150.92
-161.21
-165.86
-163.01
-151.82
-132.92
-108.17
-80.12
-51.25
-23.56
1.63
23.43
41.16
54.37
62.89
67.06
67.77
66.28
63.89
61.49
59.42
57.41
54.90
51.28
46.25
39.92
32.96
26.52
21.88
20.17
21.86
26.58
33.17
40.12
46.02
50.06
52.14
52.66
52.15
50.94
49.07
46.37
42.72
38.21
33.12
27.81
22.56
17.54
12.78
8.31
4.16
0.41
-2.86
-5.62
-7.93
-9.89
-11.67
-13.37
-15.11
-16.91
-18.75
-20.66
-22.74
-25.23
-28.45
-32.57
-37.35
-41.96
-45.14
-45.59
-42.57
-36.27
-27.74
-18.56
-10.24
-3.77
0.54
2.86
3.62
3.36
2.65
2.11
2.36
3.74
6.18
9.02
11.27
12.02
10.92
8.31
5.11
2.42
0.94
0.70
1.02
0.77
-1.03
-4.88
-10.50
-17.01
-23.27
-28.42
-32.05
-34.21
-35.02
-34.22
-31.01
-24.34
-13.26
2.89
24.58
52.26
85.97
124.44
164.03
198.74
221.59
227.24
214.43
186.93
152.19
118.25
90.79
71.66
59.49
51.75
46.57
43.35
42.06
42.13
41.88
39.06
32.02
20.62
6.41
-8.07
-20.42
-29.28
-34.51
-37.08
-38.30
-39.37
-41.07
-43.56
-46.43
-48.72
-49.24
-46.92
-41.39
-33.35
-24.50
-16.96
-12.40
-11.28
-12.63
-14.36
-14.06
-9.76
-0.58
13.11
29.79
47.19
62.74
74.15
79.85
79.28
72.89
61.79
47.42
31.00
13.47
-4.57
-22.63
-40.22
-56.81
-71.90
-85.12
-96.22
-105.07
-111.61
-115.99
-118.57
-119.89
-120.58
-121.01
-121.10
-120.32
-117.94
-113.47
-107.12
-99.85
-93.15
-88.51
-87.01
-89.07
-94.59
-103.17
-114.25
-127.17
-141.03
-154.69
-167.05
-177.26
-185.06
-190.66
-194.26
-195.56
-193.38
-185.66
-170.04
-144.55
-108.45
-62.84
-10.74
43.17
93.53
135.44
165.60
182.96
188.73
185.75
177.53
167.40
157.87
150.45
145.64
143.15
141.99
140.79
138.18
133.15
125.40
115.42
104.28
93.24
83.33
75.08
68.42
62.83
57.61
52.16
46.24
39.95
33.71
28.03
23.27
19.62
16.99
15.19
13.96
12.99
11.85
9.93
6.48
0.81
-7.42
-17.88
-29.48
-40.56
-49.34
-54.45
-55.40
-52.64
-47.29
-40.68
-33.94
-27.67
-22.08
-17.15
-12.86
-9.32
-6.71
-5.16
-4.61
-4.76
-5.17
-5.43
-5.32
-4.90
-4.55
-4.75
-5.87
-7.95
-10.66
-13.40
-15.64
-17.20
-18.35
-19.74
-22.15
-26.14
-31.86
-39.03
-46.92
-54.37
-59.94
-62.12
-59.79
-52.60
-41.31
-27.59
-13.66
-1.48
7.74
13.73
16.94
18.06
17.50
15.35
11.43
5.65
-1.78
-10.36
-19.49
-28.68
-37.57
-45.79
-52.68
-57.20
-58.01
-53.97
-44.71
-30.91
-14.28
2.99
18.79
31.70
41.04
46.66
48.71
47.35
42.89
36.04
28.07
20.68
15.53
13.77
15.61
20.43
27.03
34.17
40.86
46.53
50.89
53.77
55.05
54.68
52.77
49.69
46.03
42.45
39.48
37.42
36.25
35.62
35.03
33.99
32.19
29.57
26.38
22.97
19.67
16.63
13.76
10.81
7.50
3.66
-0.73
-5.50
-10.34
-14.90
-18.81
-21.68
-23.22
-23.20
-21.63
-18.72
-14.91
-10.74
-6.71
-3.18
-0.33
1.82
3.31
4.18
4.48
4.25
3.54
2.46
1.12
-0.40
-2.08
-3.98
-6.19
-8.72
-11.44
-14.06
-16.21
-17.60
-18.18
-18.18
-18.09
-18.50
-19.91
-22.49
-26.03
-29.84
-32.95
-34.39
-33.45
-29.96
-24.28
-17.18
-9.54
-2.08
4.75
10.77
15.93
20.23
23.65
26.21
27.99
29.15
29.92
30.42
30.74
30.91
30.93
30.81
30.54
30.10
29.43
28.52
27.37
26.04
24.63
23.20
21.73
20.12
18.23
15.98
13.36
10.47
7.48
4.59
2.13
0.56
0.45
2.29
6.29
12.20
19.30
26.66
33.41
39.00
43.22
46.06
47.55
47.59
46.06
42.95
38.48
33.14
27.53
22.20
17.46
13.40
9.93
6.87
4.06
1.40
-1.18
-3.72
-6.31
-8.98
-11.78
-14.66
-17.51
-20.13
-22.34
-24.01
-25.18
-26.06
-27.00
-28.39
-30.57
-33.57
-37.12
-40.62
-43.22
-44.04
-42.43
-38.13
-31.40
-22.94
-13.69
-4.58
3.68
10.69
16.37
20.83
24.28
26.95
29.04
30.73
32.11
33.23
34.07
34.61
34.86
34.90
34.83
34.72
34.56
34.23
33.55
32.37
30.59
28.21
25.25
21.77
17.78
13.35
8.55
3.50
-1.68
-6.93
-12.24
-17.62
-23.05
-28.38
-33.29
-37.26
-39.68
-40.02
-38.01
-33.78
-27.90
-21.24
-14.70
-8.97
-4.42
-1.04
1.38
3.10
4.34
5.23
5.88
6.37
6.77
7.08
7.25
7.17
6.78
6.07
5.08
3.93
2.72
1.51
0.33
-0.82
-2.03
-3.38
-4.97
-6.86
-8.97
-11.15
-13.18
-14.92
-16.42
-17.88
-19.64
-21.97
-24.91
-28.14
-31.05
-32.92
-33.09
-31.22
-27.41
-22.07
-15.82
-9.29
-2.97
2.83
7.93
12.21
15.64
18.22
20.08
21.38
22.32
23.04
23.54
23.77
23.63
23.01
21.88
20.31
18.45
16.51
14.69
13.11
11.74
10.40
8.89
7.11
5.12
3.17
1.56
0.43
-0.35
-1.13
-2.35
-4.36
-7.28
-10.96
-15.01
-18.92
-22.21
-24.46
-25.37
-24.85
-22.98
-20.01
-16.35
-12.44
-8.67
-5.34
-2.57
-0.32
1.50
3.04
4.40
5.63
6.75
7.74
8.58
9.27
9.70
9.71
9.06
7.49
4.74
0.70
-4.51
-10.51
-16.61
-21.92
-25.63
-27.21
-26.67
-24.55
-21.70
-18.99
-17.13
-16.41
-16.70
-17.52
-18.10
-17.52
-15.01
-10.12
-2.93
5.91
15.38
24.48
32.41
38.87
43.90
47.71
50.60
52.76
54.35
55.47
56.13
56.24
55.57
53.82
50.75
46.30
40.68
34.36
27.96
22.03
16.96
12.84
9.48
6.55
3.63
0.43
-3.15
-7.06
-11.11
-15.08
-18.84
-22.37
-25.81
-29.40
-33.39
-37.86
-42.65
-47.35
-51.32
-53.90
-54.60
-53.29
-50.27
-46.20
-41.92
-38.12
-35.21
-33.23
-31.96
-31.06
-30.30
-29.60
-28.98
-28.51
-28.29
-28.39
-28.87
-29.79
-31.04
-32.36
-33.30
-33.38
-32.27
-29.92
-26.53
-22.48
-18.14
-13.81
-9.66
-5.82
-2.42
0.28
1.99
2.34
1.13
-1.53
-5.01
-8.18
-9.64
-8.23
-3.51
4.05
13.20
22.41
30.41
36.53
40.73
43.34
44.71
45.05
44.42
42.85
40.50
37.66
34.66
31.77
29.15
26.85
24.89
23.29
21.98
20.77
19.29
17.03
13.57
8.73
2.70
-3.92
-10.37
-15.94
-20.26
-23.37
-25.69
-27.87
-30.47
-33.72
-37.29
-40.30
-41.55
-39.85
-34.58
-25.89
-14.79
-2.75
8.69
18.39
25.81
30.92
33.99
35.30
35.12
33.66
31.18
28.03
24.66
21.44
18.70
16.58
15.02
13.84
12.71
11.24
9.11
6.13
2.41
-1.75
-5.86
-9.52
-12.53
-15.00
-17.21
-19.54
-22.30
-25.61
-29.33
-32.93
-35.51
-35.97
-33.27
-26.84
-16.88
-4.40
9.09
22.06
33.35
42.38
49.09
53.65
56.22
56.93
55.86
53.22
49.35
44.77
40.00
35.51
31.60
28.41
25.97
24.24
23.17
22.70
22.76
23.22
23.90
24.60
25.21
25.74
26.30
27.05
27.92
28.60
28.62
27.60
25.63
23.50
22.63
24.55
30.35
40.05
52.46
65.37
76.04
81.86
80.86
72.14
56.09
34.51
10.36
-12.92
-32.18
-45.41
-52.12
-53.20
-50.33
-45.29
-39.47
-33.82
-28.93
-25.21
-22.88
-21.79
-21.48
-21.25
-20.51
-19.06
-17.22
-15.68
-15.26
-16.60
-19.97
-25.18
-31.58
-38.13
-43.65
-47.07
-47.79
-45.84
-41.90
-36.98
-32.08
-27.84
-24.39
-21.54
-18.98
-16.50
-14.04
-11.71
-9.63
-7.95
-6.76
-6.11
-6.08
-6.68
-7.87
-9.52
-11.47
-13.51
-15.45
-17.10
-18.29
-18.83
-18.58
-17.52
-15.76
-13.57
-11.33
-9.44
-8.34
-8.35
-9.68
-12.31
-15.98
-20.20
-24.37
-27.91
-30.46
-32.01
-32.89
-33.63
-34.80
-36.86
-40.04
-44.38
-49.80
-56.25
-63.77
-72.39
-82.12
-92.64
-103.27
-112.98
-120.57
-124.93
-125.21
-120.93
-112.05
-98.94
-82.43
-63.73
-44.34
-25.74
-9.14
4.70
15.61
23.85
29.96
34.64
38.71
43.04
48.42
55.29
63.54
72.41
80.59
86.74
89.83
89.63
86.69
82.15
77.25
72.95
69.69
67.39
65.70
64.25
62.82
61.29
59.53
57.32
54.35
50.35
45.25
39.27
32.83
26.37
20.15
14.15
8.13
1.81
-4.95
-12.13
-19.59
-27.08
-34.36
-41.10
-46.90
-51.27
-53.86
-54.58
-53.72
-51.86
-49.63
-47.48
-45.48
-43.43
-41.01
-38.07
-34.66
-31.04
-27.50
-24.24
-21.25
-18.37
-15.43
-12.44
-9.65
-7.42
-6.04
-5.42
-4.99
-3.82
-1.03
3.76
10.25
17.48
24.30
29.75
33.40
35.39
36.13
36.00
35.13
33.45
30.84
27.36
23.31
19.16
15.32
11.98
9.21
7.06
5.83
6.03
8.23
12.77
19.36
27.13
34.76
40.93
44.65
45.54
43.78
40.09
35.55
31.48
29.08
29.28
32.42
38.28
46.21
55.38
65.08
74.77
84.19
93.19
101.63
109.21
115.31
118.91
118.66
113.16
101.61
84.34
63.00
40.32
19.26
2.06
-10.34
-18.37
-23.32
-26.64
-29.30
-31.66
-33.55
-34.66
-34.82
-34.04
-32.51
-30.43
-28.01
-25.45
-23.04
-21.21
