1478926332.00
64.000000
-0.00
-0.00
-0.00
-0.00
-0.00
-0.00
-0.00
-0.00
-0.00
-0.00
0.00
0.01
0.01
-0.00
-0.03
-0.05
-0.05
0.00
0.13
0.36
0.66
1.01
1.37
1.72
2.06
2.40
2.79
3.24
3.80
4.42
5.06
5.66
6.20
6.68
7.15
7.68
8.31
9.14
10.09
11.04
11.88
12.56
13.14
13.76
14.65
15.96
17.91
20.32
22.90
25.38
27.58
29.57
31.68
34.32
37.81
42.54
48.15
54.10
59.83
64.97
69.58
74.14
79.34
85.71
93.76
103.00
112.62
121.73
129.77
136.75
143.30
150.75
157.77
166.64
177.95
191.79
206.97
220.57
228.25
225.36
208.53
176.87
132.76
80.05
23.07
-34.94
-92.44
-149.16
-205.23
-260.37
-313.74
-363.87
-409.83
-450.91
-486.50
-515.74
-537.23
-549.22
-549.96
-538.37
-514.21
-478.67
-433.88
-382.45
-327.02
-269.84
-212.63
-156.66
-102.95
-52.37
-5.90
35.58
71.43
101.35
125.50
144.38
158.69
169.15
176.37
180.75
182.57
182.07
179.51
175.23
169.65
163.18
156.15
148.81
141.30
133.69
126.02
118.33
110.69
103.16
95.80
88.68
81.83
75.25
68.95
62.95
57.25
51.86
46.78
42.03
37.59
33.45
29.61
26.07
22.81
19.83
17.11
14.67
12.48
10.54
8.83
7.35
6.07
4.97
4.05
3.27
2.62
2.09
1.65
1.30
1.01
0.78
0.60
0.47
0.38
0.32
0.27
0.22
0.16
0.07
-0.03
-0.12
-0.18
-0.19
-0.17
-0.14
-0.11
-0.11
-0.16
-0.22
-0.27
-0.29
-0.25
-0.17
-0.09
-0.05
-0.10
-0.24
-0.43
-0.60
-0.67
-0.61
-0.44
-0.25
-0.17
-0.31
-0.67
-1.17
-1.63
-1.86
-1.76
-1.39
-0.96
-0.74
-0.96
-1.66
-2.63
-3.52
-3.99
-3.85
-3.19
-2.38
-1.90
-2.13
-3.12
-4.57
-5.93
-6.72
-6.64
-5.80
-4.60
-3.56
-3.10
-3.53
-5.08
-7.83
-11.41
-14.80
-16.37
-14.36
-7.81
2.72
15.13
26.46
34.24
37.36
36.36
32.84
28.46
24.08
19.65
14.71
9.03
3.03
-2.38
-6.37
-8.55
-9.16
-8.83
-8.27
-7.90
-7.71
-7.48
-6.98
-6.17
-5.24
-4.53
-4.34
-4.77
-5.61
-6.45
-6.87
-6.65
-5.80
-4.56
-3.25
-2.07
-1.00
0.09
1.33
2.66
3.83
4.58
4.79
4.70
4.72
5.31
6.56
8.16
9.52
9.99
9.20
7.15
4.14
0.65
-2.79
-5.71
-7.73
-8.58
-8.20
-6.79
-4.80
-2.74
-1.05
0.03
0.47
0.39
-0.06
-0.85
-1.87
-2.94
-4.00
-5.06
-6.22
-7.59
-9.16
-10.86
-12.56
-14.23
-16.02
-18.16
-20.71
-23.39
-25.54
-26.32
-25.12
-21.84
-17.02
-11.60
-6.51
-2.32
0.93
3.59
6.04
8.44
10.62
12.21
12.92
12.70
11.83
10.77
9.88
9.26
8.68
7.72
5.97
3.26
-0.32
-4.41
-8.59
-12.52
-16.01
-19.06
-21.69
-23.90
-25.65
-26.98
-28.10
-29.28
-30.84
-32.84
-35.03
-36.77
-37.32
-36.10
-32.97
-28.26
-22.63
-16.82
-11.38
-6.55
-2.31
1.56
5.26
8.96
12.66
16.21
19.34
21.69
23.01
23.25
22.70
21.93
21.63
22.34
24.22
26.99
30.04
32.67
34.37
34.96
34.60
33.59
32.19
30.48
28.37
25.67
22.22
18.06
13.47
8.97
5.29
3.13
3.04
5.11
9.02
14.04
19.40
24.48
29.06
33.25
37.32
41.37
45.27
48.59
50.84
51.61
50.66
47.98
43.65
37.90
31.04
23.46
15.60
7.84
0.51
-6.15
-12.01
-16.94
-20.89
-23.85
-25.92
-27.30
-28.25
-29.03
-29.75
-30.45
-31.11
-31.85
-32.94
-34.84
-37.87
-42.03
-46.75
-50.99
-53.58
-53.64
-50.89
-45.76
-39.13
-31.98
-25.10
-18.98
-13.84
-9.84
-7.04
-5.43
-4.78
-4.57
-4.07
-2.59
0.24
4.30
8.96
13.45
17.11
19.79
21.79
23.62
25.60
27.61
29.09
29.34
27.90
24.80
20.51
15.70
10.96
6.65
2.83
-0.60
-3.89
-7.26
-10.94
-14.95
-19.05
-22.71
-25.22
-25.94
-24.53
-21.10
-16.09
-10.19
-4.04
1.95
7.56
12.73
17.43
21.54
24.89
27.29
28.71
29.28
29.34
29.29
29.49
30.06
30.92
31.80
32.33
32.17
31.06
28.88
25.67
21.61
17.01
12.19
7.44
2.94
-1.29
-5.26
-9.01
-12.48
-15.51
-18.03
-20.08
-21.92
-23.97
-26.67
-30.23
-34.53
-39.09
-43.21
-46.17
-47.40
-46.62
-43.88
-39.48
-33.90
-27.67
-21.27
-15.04
-9.20
-3.81
1.07
5.39
9.08
12.09
14.46
16.28
17.66
18.63
19.15
19.12
18.50
17.42
16.15
15.00
14.24
13.90
13.80
13.65
13.13
12.11
10.59
8.73
6.72
4.64
2.51
0.30
-2.04
-4.55
-7.22
-10.04
-12.94
-15.84
-18.53
-20.72
-22.00
-21.91
-20.11
-16.44
-11.12
-4.67
2.13
8.52
13.95
18.24
21.57
24.26
26.63
28.74
30.52
31.78
32.45
32.56
32.26
31.69
30.90
29.88
28.62
27.21
25.82
24.63
23.75
23.09
22.42
21.40
19.75
17.31
14.09
10.30
6.24
2.23
-1.50
-4.86
-7.93
-10.91
-14.05
-17.52
-21.37
-25.39
-29.16
-32.11
-33.62
-33.22
-30.80
-26.61
-21.28
-15.60
-10.22
-5.54
-1.66
1.49
4.04
5.98
7.28
7.92
8.01
7.80
7.59
7.66
8.08
8.73
9.37
9.67
9.45
8.64
7.38
5.89
4.43
3.12
1.94
0.72
-0.72
-2.47
-4.44
-6.39
-8.00
-9.01
-9.29
-8.85
-7.84
-6.57
-5.40
-4.73
-4.85
-5.89
-7.68
-9.79
-11.63
-12.69
-12.69
-11.69
-10.07
-8.30
-6.82
-5.82
-5.21
-4.57
-3.34
-0.89
3.22
9.15
16.74
25.57
35.08
44.72
53.95
62.27
69.27
74.63
78.07
79.42
78.48
74.98
68.61
59.11
46.47
31.20
14.34
-2.68
-18.29
-31.17
-40.45
-45.70
-46.88
-44.26
-38.42
-30.31
-21.22
-12.62
-5.89
-1.95
-0.99
-2.45
-5.25
-8.06
-9.72
-9.47
-7.14
-3.09
1.90
6.86
10.86
13.29
13.94
13.02
11.10
8.93
7.27
6.72
7.52
9.49
11.90
13.71
13.87
11.66
7.04
0.69
-6.20
-12.30
-16.56
-18.43
-17.99
-15.81
-12.85
-10.20
-8.88
-9.54
-12.29
-16.57
-21.32
-25.39
-27.86
-28.41
-27.30
-25.13
-22.59
-20.24
-18.48
-17.61
-17.84
-19.22
-21.48
-23.90
-25.54
-25.44
-23.10
-18.66
-12.81
-6.44
-0.37
4.76
8.37
9.76
8.25
3.56
-3.66
-11.70
-18.27
-21.44
-20.54
-16.66
-12.05
-9.09
-9.10
-11.90
-16.11
-20.13
-22.93
-24.33
-24.74
-24.61
-24.05
-22.93
-21.24
-19.31
-17.98
-18.08
-20.05
-23.61
-27.86
-31.65
-34.11
-34.98
-34.51
-33.27
-31.73
-29.93
-27.48
-23.61
-17.62
-9.21
1.22
12.60
23.45
32.28
38.08
40.54
40.10
37.70
34.52
31.65
29.93
29.84
31.49
34.64
38.73
43.05
46.80
49.32
50.23
49.42
47.16
43.94
40.42
37.13
34.38
32.05
29.75
26.98
23.36
18.80
13.46
7.59
1.43
-4.85
-11.14
-17.25
-22.82
-27.46
-30.76
-32.47
-32.55
-31.13
-28.53
-25.20
-21.72
-18.68
-16.59
-15.73
-16.04
-17.25
-18.94
-20.73
-22.38
-23.82
-25.02
-25.96
-26.47
-26.35
-25.36
-23.41
-20.63
-17.38
-14.21
-11.63
-10.02
-9.42
-9.68
-10.55
-11.83
-13.47
-15.49
-17.87
-20.47
-23.07
-25.48
-27.63
-29.64
-31.66
-33.64
-35.30
-36.11
-35.57
-33.48
-30.04
-25.84
-21.54
-17.66
-14.43
-11.81
-9.68
-7.97
-6.72
-5.99
-5.75
-5.86
-6.09
-6.23
-6.13
-5.79
-5.23
-4.54
-3.81
-3.13
-2.67
-2.58
-2.94
-3.73
-4.84
-6.09
-7.38
-8.68
-10.08
-11.75
-13.82
-16.39
-19.37
-22.44
-25.08
-26.66
-26.61
-24.64
-20.83
-15.63
-9.69
-3.70
1.85
6.66
10.59
13.53
15.40
16.15
15.78
14.49
12.62
10.62
8.91
7.76
7.16
6.87
6.57
5.97
5.05
3.95
2.90
2.05
1.33
0.51
-0.72
-2.57
-5.10
-8.21
-11.74
-15.51
-19.30
-22.77
-25.46
-26.82
-26.39
-23.96
-19.73
-14.26
-8.29
-2.54
2.50
6.62
9.81
12.20
13.90
15.02
15.67
15.98
16.06
15.96
15.61
14.90
13.80
12.36
10.82
9.42
8.37
7.71
7.29
6.89
6.21
4.98
2.98
0.04
-3.92
-8.81
-14.33
-19.96
-25.10
-29.23
-31.97
-33.23
-33.07
-31.54
-28.63
-24.19
-18.21
-10.95
-3.10
4.35
10.38
14.32
16.06
16.01
14.87
13.32
11.82
10.58
9.61
8.85
8.17
7.36
6.17
4.35
1.83
-1.24
-4.42
-7.16
-8.94
-9.46
-8.76
-7.25
-5.59
-4.56
-4.78
-6.55
-9.75
-13.81
-17.81
-20.79
-21.92
-20.79
-17.43
-12.30
-6.08
0.55
7.02
12.99
18.25
22.64
26.03
28.33
29.52
29.75
29.26
28.27
26.97
25.40
23.57
21.45
19.00
16.23
13.14
9.89
6.75
4.10
2.21
1.07
0.34
-0.49
-1.84
-3.72
-5.81
-7.69
-9.20
-10.67
-12.73
-15.96
-20.45
-25.63
-30.38
-33.47
-33.95
-31.45
-26.19
-18.86
-10.34
-1.49
6.99
14.63
21.17
26.55
30.80
34.10
36.64
38.50
39.61
39.74
38.60
36.00
32.11
27.47
22.86
19.08
16.65
15.62
15.61
16.07
16.48
16.59
16.41
16.09
15.74
15.28
14.45
12.98
10.77
7.97
4.90
1.95
-0.71
-3.15
-5.71
-8.74
-12.41
-16.52
-20.52
-23.63
-25.13
-24.62
-22.07
-17.83
-12.47
-6.58
-0.63
5.09
10.50
15.58
20.38
24.90
29.11
32.99
36.51
39.67
42.42
44.68
46.27
47.03
46.87
45.99
44.79
43.76
43.25
43.27
43.53
43.64
43.32
42.62
41.69
40.65
39.38
37.57
34.97
31.68
28.14
24.98
22.72
21.46
20.84
20.30
19.21
17.17
14.04
9.95
5.25
0.48
-3.72
-6.64
-7.74
-6.82
-4.06
0.02
4.67
9.21
13.11
16.06
18.02
19.08
19.45
19.32
18.91
18.36
17.77
17.25
16.88
16.65
16.49
16.18
15.50
14.35
12.78
11.02
9.34
7.89
6.62
5.36
3.95
2.36
0.68
-1.00
-2.66
-4.41
-6.41
-8.68
-11.12
-13.50
-15.62
-17.46
-19.18
-21.03
-23.20
-25.75
-28.50
-31.11
-33.12
-34.07
-33.58
-31.51
-27.98
-23.35
-18.13
-12.84
-7.89
-3.49
0.21
3.20
5.50
7.15
8.24
8.88
9.22
9.36
9.39
9.42
9.48
9.59
9.72
9.82
9.82
9.74
9.60
9.45
9.33
9.18
8.89
8.36
7.49
6.22
4.60
2.73
0.73
-1.21
-3.00
-4.58
-5.99
-7.36
-8.86
-10.62
-12.71
-15.10
-17.65
-20.12
-22.11
-23.20
-23.02
-21.38
-18.39
-14.42
-9.98
-5.56
-1.53
1.91
4.69
6.78
8.21
9.05
9.39
9.41
9.30
9.20
9.18
9.24
9.35
9.45
9.47
9.34
9.03
8.55
7.95
7.37
6.87
6.51
6.22
5.87
5.30
4.40
3.16
1.66
0.07
-1.45
-2.82
-4.07
-5.34
-6.79
-8.54
-10.58
-12.76
-14.85
-16.57
-17.69
-18.00
-17.37
-15.73
-13.12
-9.71
-5.85
-1.97
1.48
4.13
5.85
6.70
6.92
6.81
6.60
6.37
6.10
5.68
5.07
4.31
3.54
2.95
2.69
2.80
3.17
3.62
3.97
4.08
3.94
3.53
2.88
2.00
0.93
-0.29
-1.59
-2.86
-4.05
-5.12
-6.12
-7.15
-8.27
-9.45
-10.48
-11.00
-10.61
-9.04
-6.33
-2.85
0.77
3.86
5.99
7.11
7.47
7.45
7.31
7.06
6.53
5.56
4.13
2.44
0.80
-0.54
-1.52
-2.30
-3.12
-4.13
-5.32
-6.54
-7.62
-8.51
-9.29
-10.11
-11.12
-12.38
-13.81
-15.30
-16.76
-18.23
-19.81
-21.71
-24.06
-26.87
-29.91
-32.69
-34.55
-34.86
-33.22
-29.64
-24.57
-18.71
-12.86
-7.64
-3.36
-0.10
2.27
3.93
5.07
5.80
6.22
6.39
6.36
6.12
5.69
5.03
4.18
3.18
2.15
1.20
0.41
-0.22
-0.77
-1.32
-2.00
-2.90
-4.07
-5.51
-7.17
-8.97
-10.81
-12.64
-14.47
-16.37
-18.44
-20.68
-22.97
-24.99
-26.27
-26.31
-24.81
-21.74
-17.43
-12.45
-7.42
-2.84
1.06
4.25
6.85
8.98
10.68
11.94
12.76
13.21
13.39
13.44
13.37
13.11
12.51
11.51
10.19
8.78
7.58
6.74
6.22
5.74
4.93
3.55
1.62
-0.63
-2.85
-4.77
-6.32
-7.65
-9.03
-10.74
-12.95
-15.70
-18.89
-22.28
-25.47
-27.94
-29.11
-28.50
-25.92
-21.57
-16.05
-10.21
-4.89
-0.66
2.26
4.06
5.14
5.92
6.62
7.30
7.80
7.97
7.75
7.27
6.77
6.53
6.64
7.07
7.65
8.17
8.50
8.64
8.64
8.54
8.31
7.84
7.06
5.94
4.54
2.95
1.12
-1.09
-3.86
-7.33
-11.41
-15.76
-19.83
-23.03
-24.91
-25.25
-24.14
-21.87
-18.82
-15.36
-11.79
-8.25
-4.83
-1.53
1.66
4.70
7.51
9.94
11.83
13.08
13.69
13.77
13.51
13.16
12.89
12.83
13.02
13.44
14.00
14.48
14.59
14.02
12.57
10.26
7.33
4.23
1.38
-1.00
-2.97
-4.82
-6.98
-9.75
-13.19
-17.06
-20.86
-23.89
-25.55
-25.41
-23.45
-20.01
-15.65
-11.02
-6.56
-2.52
1.01
3.97
6.26
7.69
8.12
7.57
6.30
4.72
3.27
2.17
1.36
0.45
-1.09
-3.60
-7.05
-10.94
-14.49
-16.99
-18.16
-18.36
-18.52
-19.69
-22.51
-26.81
-31.48
-34.83
-35.23
-31.89
-25.32
-17.18
-9.53
-3.65
0.86
6.17
15.49
31.68
55.88
86.68
120.17
150.64
171.55
176.92
162.77
128.75
79.44
24.44
-23.49
-52.04
-53.57
-28.17
16.27
67.01
111.15
139.88
150.46
145.47
130.19
109.97
88.71
68.88
52.19
40.18
33.90
33.21
36.28
39.84
40.28
35.06
23.73
8.04
-8.85
-23.64
-34.21
-40.26
-43.17
-45.27
-48.71
-54.57
-62.50
-70.96
-77.98
-81.95
-82.21
-79.12
-73.72
-67.11
-60.07
-52.88
-45.50
-37.89
-30.25
-23.07
-17.02
-12.66
-10.27
-9.72
-10.46
-11.70
-12.58
-12.40
-10.88
-8.19
-4.91
-1.82
0.42
1.47
1.36
0.49
-0.68
-1.73
-2.41
-2.62
-2.42
-1.95
-1.44
-1.16
-1.36
-2.19
-3.62
-5.53
-7.80
-10.37
-13.28
-16.55
-20.05
-23.46
-26.27
-27.90
-27.91
-26.13
-22.72
-18.11
-12.89
-7.63
-2.75
1.51
5.07
7.97
10.25
11.93
13.04
13.61
13.69
13.41
12.90
12.29
11.65
11.04
10.49
10.06
9.77
9.68
9.75
9.92
10.08
10.07
9.72
8.88
7.43
5.39
2.85
0.04
-2.83
-5.50
-7.84
-9.81
-11.52
-13.19
-15.10
-17.51
-20.45
-23.65
-26.53
-28.32
-28.34
-26.24
-22.19
-16.81
-10.91
-5.28
-0.36
3.68
6.90
9.34
10.96
11.64
11.32
10.15
8.49
6.83
5.59
4.97
4.94
5.30
5.85
6.43
6.97
7.41
7.61
7.39
6.60
5.22
3.38
1.35
-0.61
-2.32
-3.72
-4.92
-6.10
-7.48
-9.25
-11.49
-14.21
-17.18
-20.01
-22.12
-22.93
-22.04
-19.37
-15.28
-10.42
-5.51
-1.17
2.30
4.90
6.80
8.15
9.04
9.43
9.26
8.56
7.47
6.23
5.06
4.05
3.24
2.56
2.00
1.57
1.31
1.14
0.85
0.17
-1.16
-3.21
-5.80
-8.59
-11.25
-13.60
-15.66
-17.62
-19.73
-22.12
-24.75
-27.30
-29.31
-30.22
-29.62
-27.34
-23.52
-18.62
-13.23
-7.94
-3.16
0.89
4.15
6.65
8.44
9.61
10.28
10.59
10.67
10.58
10.32
9.81
9.03
7.96
6.76
5.61
4.70
4.09
3.70
3.36
2.86
2.07
0.97
-0.38
-1.87
-3.41
-5.03
-6.81
-8.90
-11.44
-14.46
-17.86
-21.32
-24.38
-26.51
-27.24
-26.23
-23.45
-19.15
-13.80
-8.07
-2.60
2.09
5.69
8.23
9.91
11.01
11.76
12.23
12.31
11.92
11.07
9.92
8.78
7.91
7.41
7.18
7.02
6.73
6.24
5.55
4.68
3.60
2.18
0.41
-1.61
-3.64
-5.37
-6.73
-7.89
-9.21
-11.05
-13.55
-16.57
-19.68
-22.37
-24.16
-24.67
-23.66
-21.06
-17.01
-11.85
-6.21
-0.78
3.82
7.26
9.58
11.09
12.16
13.07
13.92
14.62
15.04
15.11
14.82
14.22
13.39
12.38
11.25
10.14
9.21
8.54
8.14
7.80
7.23
6.20
4.64
2.71
0.70
-1.13
-2.67
-4.02
-5.45
-7.27
-9.68
-12.67
-15.97
-19.12
-21.50
-22.51
-21.77
-19.22
-15.17
-10.23
-5.14
-0.47
3.46
6.61
9.10
11.03
12.43
13.20
13.27
12.72
11.75
10.70
9.85
9.31
9.01
8.74
8.31
7.62
6.67
5.56
4.40
3.25
2.08
0.80
-0.67
-2.34
-4.16
-6.05
-7.98
-9.99
-12.23
-14.82
-17.74
-20.74
-23.36
-24.99
-25.03
-23.06
-19.00
-13.11
-5.99
1.54
8.64
14.58
18.97
21.82
23.49
24.52
25.48
26.67
28.08
29.37
30.03
29.48
27.26
23.07
16.93
9.21
0.62
-7.86
-15.20
-20.69
-24.27
-26.54
-28.59
-31.47
-35.69
-40.92
-46.08
-50.01
-52.12
-52.74
-52.91
-53.68
-55.39
-57.48
-58.80
-58.39
-56.03
-52.27
-47.90
-43.37
-38.47
-32.73
-25.91
-18.49
-11.65
-6.68
-4.31
-4.35
-5.75
-7.17
-7.44
-5.92
-2.54
2.40
8.43
15.05
21.73
27.98
33.35
37.67
41.06
43.95
46.85
50.02
53.20
55.61
56.30
54.60
50.54
44.81
38.43
32.17
26.25
20.32
13.87
6.70
-0.79
-7.70
-13.03
-16.03
-16.52
-14.80
-11.48
-7.13
-2.21
2.95
8.02
12.52
15.91
17.70
17.77
16.48
14.58
12.98
12.24
12.39
12.88
13.02
12.33
10.99
9.77
9.75
11.80
16.22
22.65
30.18
37.76
44.40
49.31
51.88
51.68
48.46
42.34
33.92
24.31
14.86
6.73
0.61
-3.41
-5.66
-6.48
-6.02
-4.25
-1.23
2.60
6.39
9.22
10.45
10.04
8.49
6.45
4.34
2.18
-0.28
-3.18
-6.40
-9.49
-11.98
-13.65
-14.64
-15.40
-16.39
-17.86
-19.75
-21.80
-23.71
-25.28
-26.55
-27.71
-29.04
-30.80
-33.18
-36.21
-39.81
-43.67
-47.34
-50.14
-51.36
-50.33
-46.65
-40.34
-31.96
-22.45
-12.95
-4.47
2.33
7.20
10.31
12.02
12.73
12.79
12.39
11.62
10.45
8.82
6.77
4.47
2.28
0.68
0.08
0.65
2.19
4.21
6.06
7.24
7.50
6.91
5.67
4.00
1.96
-0.55
-3.66
-7.33
-11.18
-14.52
-16.56
-16.63
-14.42
-10.10
-4.15
2.74
9.90
16.80
22.98
28.15
32.14
34.96
36.86
38.25
39.56
41.13
43.05
45.15
47.11
48.52
49.02
48.35
46.45
43.41
39.53
35.17
30.75
26.60
22.95
19.93
17.60
15.88
14.48
12.89
10.48
6.75
1.57
-4.68
-11.22
-17.05
-21.33
-23.50
-23.43
-21.34
-17.73
-13.26
-8.66
-4.55
-1.26
1.24
3.32
5.44
7.93
10.78
13.75
16.50
18.84
20.77
22.32
23.44
23.79
22.92
20.36
16.02
10.25
3.79
-2.50
-7.86
-11.94
-14.82
-16.92
-18.92
-21.54
-25.36
-30.65
-37.21
-44.34
-50.95
-55.81
-57.84
-56.39
-51.41
-43.47
-33.66
-23.27
-13.58
-5.50
0.61
4.95
8.13
10.89
13.78
17.06
20.65
24.24
27.38
29.59
30.40
29.50
26.82
22.56
17.15
11.10
4.91
-1.02
-6.33
-10.66
-13.74
-15.51
-16.19
-16.34
-16.66
-17.71
-19.76
-22.71
-26.17
-29.58
-32.30
-33.75
-33.50
-31.37
-27.56
-22.54
-16.96
-11.47
-6.48
-2.19
1.44
4.51
7.14
9.39
11.29
12.78
13.77
14.17
13.97
13.28
12.29
11.21
10.14
9.04
7.77
6.23
4.46
2.65
1.07
-0.14
-1.01
-1.82
-2.93
-4.65
-7.11
-10.20
-13.60
-16.81
-19.20
-20.11
-19.07
-15.95
-11.08
-5.17
0.91
6.41
11.00
14.73
17.94
20.92
23.70
26.03
27.49
27.77
26.82
24.99
22.85
21.05
20.07
20.11
21.11
22.76
24.66
26.38
27.51
27.66
26.57
24.01
19.99
14.74
8.69
2.36
-3.75
-9.32
-14.24
-18.45
-21.83
-24.08
-24.74
-23.39
-19.81
-14.17
-7.07
0.51
7.49
12.93
16.35
17.88
18.20
18.27
18.91
20.52
22.96
25.69
28.05
29.58
30.05
29.39
27.47
24.09
19.12
12.69
5.25
-2.42
-9.51
-15.41
-19.90
-23.07
-25.30
-26.96
-28.27
-29.23
-29.52
-28.80
-26.89
-24.02
-20.73
-17.66
-15.09
-12.73
-9.75
-5.30
0.99
8.67
16.63
23.63
28.88
32.26
34.11
34.79
34.32
32.34
28.40
22.33
14.47
5.59
-3.41
-11.83
-19.37
-26.09
-32.24
-37.92
-42.94
-46.84
-49.10
-49.47
-48.27
-46.28
-44.50
-43.71
-44.07
-45.19
-46.35
-46.97
-46.89
-46.35
-45.63
-44.72
-43.08
-39.68
-33.44
-23.63
-10.22
6.03
23.68
40.97
56.11
67.52
73.97
74.74
69.66
59.24
44.76
28.15
11.77
-2.08
-11.64
-16.09
-15.74
-11.85
-6.20
-0.51
3.98
6.80
8.08
8.33
8.02
7.41
6.48
5.05
2.96
0.10
-3.59
-8.14
-13.41
-18.95
-23.85
-26.84
-26.72
-22.86
-15.55
-5.93
4.42
14.08
22.20
28.64
33.63
37.55
40.61
42.82
44.08
44.32
43.63
42.25
40.63
39.33
38.95
39.92
42.37
46.01
50.19
54.09
57.03
58.68
59.10
58.61
57.68
56.65
55.66
54.63
53.30
51.46
49.00
46.05
42.92
39.90
37.16
34.67
32.27
29.81
27.38
25.24
23.76
23.10
23.16
23.39
23.04
21.28
17.59
11.84
4.38
-4.05
-12.59
-20.52
-27.40
-33.01
-37.15
-39.43
-39.31
-36.30
-30.51
-22.81
-14.80
-8.42
-5.26
-6.28
-11.72
-21.34
-34.67
-51.10
-69.60
-88.55
-105.80
-119.03
-126.49
-127.50
-122.71
-113.74
-102.65
-91.26
-80.70
-71.39
-63.05
-54.99
-46.41
-36.68
-25.55
-13.25
-0.40
12.19
23.65
33.26
40.31
44.13
44.05
39.53
30.51
17.69
2.69
-12.23
-24.78
-33.43
-37.95
-39.49
-40.08
-41.77
-45.81
-52.27
-60.08
-67.62
-73.33
-76.13
-75.70
-72.44
-67.35
-61.88
-57.46
-55.08
-54.73
-55.16
-54.18
-49.57
-39.99
-25.85
-9.18
6.91
19.41
26.28
27.06
22.69
15.01
5.95
-2.98
-10.94
-17.58
-22.59
-25.27
-24.44
-18.76
-7.46
8.92
28.22
47.16
62.34
71.43
73.96
71.20
65.39
58.73
52.51
46.82
40.89
33.59
24.15
12.44
-0.98
-15.23
-29.54
-43.60
-57.50
-71.28
-84.40
-95.61
-103.24
-106.13
-104.23
-98.69
-91.02
-81.91
-70.49
-54.75
-33.01
-5.50
24.82
53.03
74.03
84.67
84.69
76.51
63.77
49.88
37.14
26.80
19.62
16.35
17.74
24.08
34.61
47.46
59.89
69.22
73.55
72.34
66.36
57.24
46.75
36.23
26.37
17.36
9.32
2.69
-1.77
-3.39
-2.02
1.54
5.69
8.57
8.75
5.60
-0.65
-9.27
-19.38
-30.08
-40.09
-47.61
-50.47
-46.88
-36.48
-20.95
-3.74
11.11
20.43
22.99
19.52
12.05
2.93
-5.57
-11.32
-12.30
-6.82
5.71
24.08
45.04
64.01
76.49
79.41
72.07
55.96
34.14
10.26
-12.32
-31.08
-44.65
-52.77
-56.11
-55.86
-53.27
-49.36
-44.88
-40.61
-37.42
-36.26
-37.68
-41.42
-46.19
-50.06
-51.17
-48.56
-42.60
-34.69
-26.65
-19.86
-14.73
-10.84
-7.34
-3.59
0.49
4.44
7.63
9.68
10.72
11.27
11.92
13.00
14.34
15.37
15.50
14.42
12.35
9.92
7.88
6.71
6.43
6.61
6.66
6.05
4.51
1.98
-1.29
-4.87
-8.16
-10.45
-11.15
-9.93
-6.94
-2.72
1.96
6.40
10.22
13.32
15.84
17.84
19.34
20.27
20.60
20.48
20.18
19.94
19.82
19.65
19.07
17.71
15.43
12.38
8.99
5.80
3.26
1.61
0.76
0.36
-0.11
-1.10
-2.92
-5.58
-8.82
-12.10
-14.75
-16.14
-15.85
-13.79
-10.21
-5.63
-0.65
4.19
8.56
12.31
15.40
17.80
19.43
20.17
20.00
19.05
17.61
16.04
14.68
13.61
12.77
11.93
10.90
9.57
8.00
6.33
4.71
3.19
1.75
0.27
-1.41
-3.43
-5.90
-8.72
-11.57
-13.94
-15.23
-14.96
-12.97
-9.48
-5.06
-0.35
4.10
8.02
11.38
14.27
16.71
18.59
19.67
19.73
18.79
17.16
15.38
13.97
13.17
12.82
12.46
11.58
9.97
7.75
5.40
3.41
2.07
1.34
0.88
0.24
-0.93
-2.84
-5.44
-8.53
-11.67
-14.35
-15.98
-16.13
-14.61
-11.59
-7.50
-2.90
1.71
5.95
9.61
12.53
14.64
15.87
16.28
15.98
15.24
14.29
13.38
12.63
12.08
11.69
11.31
10.81
10.09
9.09
7.82
6.35
4.77
3.19
1.73
0.46
-0.64
-1.67
-2.87
-4.45
-6.54
-9.01
-11.48
-13.46
-14.43
-14.08
-12.35
-9.39
-5.56
-1.29
2.96
6.75
9.81
12.01
13.41
14.22
14.68
14.96
15.12
15.15
15.01
14.68
14.11
13.27
12.08
10.52
8.66
6.74
5.03
3.79
3.12
2.89
2.80
2.49
1.63
0.06
-2.22
-5.07
-8.21
-11.31
-13.96
-15.83
-16.67
-16.39
-15.00
-12.66
-9.57
-5.94
-2.02
1.93
5.65
8.89
11.45
13.15
13.93
13.81
12.93
11.66
10.51
10.03
10.60
12.24
14.58
16.96
18.68
19.24
18.58
16.95
14.79
12.47
10.23
8.09
5.93
3.63
1.07
-1.74
-4.73
-7.67
-10.24
-12.06
-12.82
-12.32
-10.62
-7.93
-4.68
-1.28
1.86
4.45
6.36
7.64
8.50
9.22
10.03
10.97
11.83
12.24
11.84
10.47
8.25
5.53
2.73
0.17
-1.95
-3.50
-4.46
-4.81
-4.67
-4.30
-4.09
-4.37
-5.28
-6.67
-8.15
-9.31
-9.94
-10.12
-10.21
-10.54
-11.23
-12.09
-12.65
-12.36
-10.85
-8.16
-4.74
-1.30
1.46
3.16
3.87
4.06
4.25
4.77
5.55
6.25
6.58
6.55
6.49
6.78
7.54
8.41
8.74
7.94
5.88
3.00
0.05
-2.27
-3.72
-4.51
-5.16
-6.10
-7.51
-9.29
-11.25
-13.23
-15.17
-17.00
-18.54
-19.46
-19.36
-17.91
-15.07
-11.13
-6.67
-2.33
1.37
4.20
6.19
7.58
8.64
9.54
10.34
11.01
11.43
11.52
11.26
10.68
9.88
8.96
8.00
7.00
5.90
4.66
3.29
1.90
0.67
-0.24
-0.74
-0.98
-1.26
-1.98
-3.38
-5.47
-7.98
-10.48
-12.53
-13.83
-14.31
-14.05
-13.22
-11.97
-10.35
-8.37
-6.06
-3.50
-0.89
1.52
3.50
4.95
5.91
6.57
7.14
7.76
8.45
9.11
9.62
9.87
9.80
9.39
8.61
7.47
6.07
4.60
3.31
2.40
1.93
1.76
1.66
1.39
0.81
-0.12
-1.36
-2.92
-4.80
-6.94
-9.15
-11.08
-12.31
-12.52
-11.62
-9.78
-7.39
-4.84
-2.44
-0.25
1.84
3.97
6.24
8.50
10.44
11.67
11.92
11.16
9.63
7.71
5.79
4.11
2.73
1.63
0.73
0.05
-0.44
-0.84
-1.32
-2.13
-3.45
-5.27
-7.38
-9.54
-11.61
-13.60
-15.69
-18.02
-20.56
-23.01
-24.92
-25.79
-25.32
-23.46
-20.42
-16.60
-12.42
-8.24
-4.34
-0.88
2.08
4.52
6.48
8.00
9.04
9.58
9.59
9.14
8.41
7.66
7.13
6.91
6.91
6.90
6.63
5.89
4.64
2.98
1.11
-0.75
-2.44
-3.92
-5.30
-6.76
-8.52
-10.73
-13.44
-16.55
-19.85
-23.02
-25.64
-27.28
-27.49
-25.98
-22.76
-18.17
-12.77
-7.28
-2.21
2.13
5.68
8.55
10.82
12.56
13.82
14.68
15.27
15.73
16.11
16.34
16.27
15.76
14.81
13.53
12.14
10.82
9.62
8.46
7.16
5.62
3.80
1.86
0.03
-1.52
-2.74
-3.80
-5.03
-6.77
-9.23
-12.25
-15.32
-17.65
-18.52
-17.48
-14.56
-10.24
-5.24
-0.27
4.22
8.07
11.36
14.26
16.81
18.98
20.56
21.41
21.46
20.80
19.63
18.25
16.85
15.54
14.32
13.08
11.75
10.32
8.83
7.34
5.84
4.24
2.44
0.41
-1.80
-4.07
-6.32
-8.56
-10.94
-13.54
-16.33
-18.96
-20.87
-21.48
-20.40
-17.64
-13.58
-8.84
-4.02
0.51
4.63
8.40
11.82
14.75
16.90
18.03
18.07
17.19
15.79
14.28
12.91
11.72
10.62
9.50
8.29
7.03
5.74
4.37
2.86
1.16
-0.69
-2.54
-4.22
-5.66
-6.92
-8.24
-9.95
-12.34
-15.45
-19.07
-22.67
-25.55
-27.06
-26.75
-24.56
-20.78
-15.97
-10.72
-5.55
-0.73
3.62
7.50
10.93
13.84
16.16
17.77
18.66
18.91
18.68
18.16
17.45
16.53
15.32
13.74
11.81
9.72
7.70
5.95
4.50
3.20
1.80
0.05
-2.10
-4.58
-7.22
-9.89
-12.58
-15.35
-18.22
-21.01
-23.27
-24.43
-23.95
-21.58
-17.51
-12.29
-6.64
-1.18
3.72
7.97
11.63
14.75
17.28
19.07
19.96
19.95
19.19
17.98
16.69
15.57
14.70
14.01
13.34
12.46
11.22
9.58
7.64
5.60
3.66
1.98
0.54
-0.82
-2.35
-4.33
-6.90
-10.08
-13.65
-17.27
-20.47
-22.71
-23.51
-22.51
-19.60
-15.03
-9.35
-3.29
2.43
7.30
11.09
13.85
15.82
17.25
18.31
19.06
19.46
19.46
19.07
18.40
17.62
16.92
16.35
15.87
15.33
14.57
13.47
12.03
10.31
8.43
6.49
4.57
2.77
1.13
-0.39
-1.95
-3.78
-6.08
-8.91
-12.06
-15.08
-17.35
-18.29
-17.49
-14.84
-10.58
-5.20
0.58
6.06
10.70
14.20
16.52
17.86
18.49
18.66
18.61
18.46
18.33
18.26
18.25
18.23
18.08
17.67
16.98
16.07
15.05
14.08
13.20
12.38
11.49
10.34
8.80
6.84
4.55
2.15
-0.11
-2.10
-3.85
-5.63
-7.79
-10.63
-14.14
-17.89
-21.16
-23.20
-23.45
-21.78
-18.46
-14.03
-9.09
-4.18
0.30
4.13
7.20
9.52
11.16
12.23
12.82
12.98
12.71
12.00
10.92
9.58
8.16
6.84
5.73
4.86
4.13
3.45
2.69
1.78
0.68
-0.67
-2.26
-4.10
-6.12
-8.17
-10.08
-11.74
-13.18
-14.65
-16.51
-18.98
-22.05
-25.24
-27.83
-29.04
-28.35
-25.71
-21.53
-16.47
-11.18
-6.09
-1.39
2.87
6.63
9.74
12.02
13.38
13.90
13.82
13.40
12.85
12.26
11.67
11.08
10.50
9.91
9.24
8.38
7.25
5.85
4.28
2.67
1.07
-0.52
-2.18
-3.94
-5.76
-7.55
-9.28
-11.06
-13.05
-15.45
-18.21
-21.05
-23.44
-24.75
-24.44
-22.25
-18.31
-13.05
-7.18
-1.42
3.67
7.82
11.06
13.64
15.79
17.66
19.19
20.23
20.65
20.46
19.83
19.02
18.27
17.62
17.00
16.20
15.12
13.76
12.29
10.88
9.65
8.54
7.42
6.12
4.56
2.75
0.76
-1.30
-3.43
-5.65
-8.05
-10.65
-13.35
-15.89
-17.85
-18.73
-18.15
-15.96
-12.33
-7.78
-2.97
1.50
5.26
8.21
10.45
12.12
13.34
14.08
14.28
13.91
13.04
11.86
10.60
9.49
8.65
8.04
7.47
6.70
5.50
3.82
1.76
-0.46
-2.55
-4.35
-5.82
-7.10
-8.42
-10.00
-11.97
-14.33
-16.96
-19.61
-22.03
-23.91
-24.94
-24.86
-23.48
-20.78
-16.91
-12.24
-7.30
-2.67
1.24
4.23
6.35
7.86
9.02
9.91
10.43
10.42
9.75
8.56
7.12
5.77
4.72
3.94
3.19
2.19
0.75
-1.08
-3.07
-4.91
-6.39
-7.46
-8.26
-9.05
-10.13
-11.73
-13.98
-16.89
-20.25
-23.69
-26.63
-28.40
-28.41
-26.35
-22.35
-16.96
-11.00
-5.31
-0.47
3.32
6.23
8.56
10.58
12.32
13.62
14.23
14.01
13.05
11.63
10.13
8.84
7.88
7.19
6.56
5.78
4.73
3.39
1.84
0.16
-1.59
-3.40
-5.27
-7.16
-9.08
-11.04
-13.17
-15.60
-18.35
-21.16
-23.46
-24.52
-23.72
-20.85
-16.22
-10.58
-4.77
0.56
5.15
9.03
12.34
15.11
17.22
18.52
18.99
18.75
18.11
17.32
16.54
15.79
14.98
14.06
13.03
11.95
10.89
9.84
8.67
7.25
5.55
3.67
1.80
0.13
-1.24
-2.45
-3.76
-5.52
-7.96
-11.04
-14.42
-17.48
-19.48
-19.85
-18.37
-15.23
-11.01
-6.45
-2.17
1.49
4.54
7.20
9.71
12.14
14.33
15.98
16.78
16.58
15.48
13.77
11.76
9.70
7.72
5.83
4.09
2.57
1.41
0.66
0.18
-0.36
-1.33
-2.93
-5.07
-7.47
-9.81
-12.00
-14.25
-16.86
-19.94
-23.15
-25.70
-26.70
-25.54
-22.20
-17.26
-11.60
-6.05
-1.11
3.05
6.41
8.99
10.68
11.39
11.11
10.01
8.43
6.79
5.39
4.38
3.75
3.33
2.89
2.21
1.17
-0.22
-1.80
-3.32
-4.60
-5.51
-6.13
-6.66
-7.40
-8.62
-10.54
-13.24
-16.62
-20.34
-23.86
-26.46
-27.48
-26.47
-23.44
-18.80
-13.27
-7.59
-2.28
2.40
6.48
10.10
13.30
16.04
18.20
19.63
20.31
20.30
19.72
18.76
17.60
16.39
15.26
14.23
13.25
12.27
11.20
10.02
8.79
7.53
6.26
4.91
3.39
1.55
-0.71
-3.52
-6.92
-10.85
-15.08
-19.16
-22.45
-24.29
-24.21
-22.04
-18.08
-12.87
-7.09
-1.33
3.97
8.56
12.30
15.17
17.24
18.66
19.60
20.19
20.40
20.13
19.29
17.90
16.21
14.55
13.24
12.38
11.85
11.36
10.64
9.57
8.18
6.62
4.99
3.25
1.32
-0.89
-3.41
-6.18
-9.08
-12.05
-14.98
-17.78
-20.21
-21.93
-22.53
-21.69
-19.29
-15.48
-10.71
-5.50
-0.39
4.24
8.15
11.22
13.42
14.81
15.50
15.59
15.27
14.64
13.81
12.87
11.89
10.95
10.09
9.33
8.58
7.75
6.75
5.52
4.11
2.54
0.86
-0.92
-2.80
-4.76
-6.76
-8.89
-11.27
-14.08
-17.35
-20.84
-23.98
-26.04
-26.37
-24.69
-21.17
-16.40
-11.07
-5.80
-0.96
3.30
6.95
9.97
12.28
13.83
14.57
14.61
14.11
13.33
12.47
11.71
11.11
10.66
10.30
9.92
9.41
8.70
7.76
6.59
5.22
3.69
2.01
0.15
-1.90
-4.13
-6.52
-9.03
-11.66
-14.43
-17.28
-19.96
-22.01
-22.88
-22.16
-19.74
-16.00
-11.54
-7.00
-2.83
0.85
4.10
7.04
9.74
12.15
14.25
16.01
17.46
18.58
19.30
19.51
19.13
18.20
16.90
15.47
14.12
12.93
11.84
10.76
9.61
8.38
7.10
5.83
4.56
3.28
1.96
0.61
-0.74
-2.15
-3.81
-6.02
-9.00
-12.75
-16.84
-20.52
-22.91
-23.33
-21.54
-17.84
-12.87
-7.41
-2.15
2.47
6.24
9.11
11.17
12.52
13.27
13.55
13.40
12.85
11.91
10.69
9.28
7.85
6.54
5.42
4.51
3.76
3.11
2.48
1.74
0.74
-0.64
-2.49
-4.73
-7.13
-9.38
-11.20
-12.46
-13.25
-13.84
-14.55
-15.56
-16.85
-18.13
-18.90
-18.69
-17.21
-14.44
-10.63
-6.19
-1.57
2.88
6.96
10.57
13.66
16.22
18.20
19.56
20.30
20.43
20.07
19.33
18.37
17.37
16.49
15.79
15.23
14.61
13.70
12.32
10.42
8.16
5.75
3.37
1.06
-1.27
-3.74
-6.42
-9.22
-11.98
-14.52
-16.74
-18.56
-19.84
-20.35
-19.83
-18.09
-15.17
-11.39
-7.21
-3.09
0.64
3.88
6.66
9.01
10.87
12.13
12.68
12.47
11.60
10.28
8.77
7.30
6.02
4.99
4.18
3.56
3.05
2.64
2.24
1.72
0.88
-0.44
-2.30
-4.62
-7.16
-9.65
-11.91
-13.94
-15.91
-18.03
-20.46
-23.16
-25.82
-27.92
-28.82
-28.02
-25.28
-20.79
-15.17
-9.20
-3.59
1.20
5.07
8.16
10.70
12.81
14.53
15.80
16.57
16.79
16.52
15.89
15.06
14.20
13.43
12.74
12.05
11.22
10.20
8.98
7.68
6.40
5.14
3.89
2.59
1.22
-0.19
-1.64
-3.26
-5.24
-7.78
-10.91
-14.34
-17.50
-19.69
-20.28
-18.97
-15.89
-11.58
-6.77
-2.20
1.68
4.70
6.99
8.71
10.02
10.90
11.28
11.13
10.53
9.66
8.73
7.86
7.08
6.28
5.34
4.17
2.77
1.24
-0.25
-1.60
-2.74
-3.70
-4.57
-5.44
-6.34
-7.28
-8.25
-9.30
-10.54
-12.10
-13.95
-15.92
-17.62
-18.59
-18.45
-17.05
-14.53
-11.24
-7.70
-4.38
-1.60
0.47
1.79
2.43
2.42
1.86
0.81
-0.59
-2.15
-3.57
-4.58
-4.97
-4.72
-3.99
-3.14
-2.57
-2.57
-3.22
-4.40
-5.81
-7.18
-8.39
-9.53
-10.79
-12.34
-14.21
-16.33
-18.51
-20.56
-22.31
-23.53
-23.94
-23.22
-21.12
-17.65
-13.12
-8.08
-3.14
1.24
4.83
7.67
9.90
11.69
13.09
14.09
14.64
14.72
14.38
13.75
13.02
12.38
11.88
11.45
10.87
9.94
8.51
6.68
4.70
2.85
1.37
0.26
-0.66
-1.66
-3.03
-4.94
-7.45
-10.46
-13.77
-17.10
-20.06
-22.18
-23.03
-22.28
-19.85
-15.98
-11.23
-6.29
-1.76
2.05
5.18
7.92
10.52
13.06
15.32
16.96
17.74
17.69
17.13
16.55
16.33
16.58
17.15
17.70
17.91
17.64
16.97
16.10
15.17
14.24
13.20
11.88
10.14
7.97
5.41
2.59
-0.44
-3.62
-6.89
-10.09
-12.88
-14.81
-15.48
-14.62
-12.29
-8.83
-4.76
-0.65
3.07
6.18
8.61
10.37
11.46
11.81
11.35
10.04
7.98
5.46
2.84
0.50
-1.32
-2.59
-3.45
-4.17
-4.93
-5.84
-6.81
-7.68
-8.34
-8.79
-9.25
-10.03
-11.40
-13.47
-16.06
-18.81
-21.26
-22.99
-23.68
-23.22
-21.59
-18.94
-15.53
-11.68
-7.74
-3.95
-0.44
2.86
6.04
9.16
12.10
14.54
16.11
16.55
15.86
14.40
12.76
11.53
11.11
11.50
12.32
13.08
13.32
12.85
11.76
10.29
8.63
6.88
4.99
2.84
0.36
-2.42
-5.41
-8.47
-11.43
-14.04
-15.97
-16.87
-16.43
-14.52
-11.30
-7.19
-2.74
1.48
5.04
7.77
9.68
10.92
11.70
12.16
12.37
12.38
12.21
11.94
11.64
11.37
11.06
10.63
9.94
8.97
7.80
6.54
5.29
4.06
2.74
1.24
-0.49
-2.36
-4.25
-6.11
-8.08
-10.42
-13.35
-16.82
-20.37
-23.23
-24.59
-23.90
-21.15
-16.82
-11.72
-6.64
-2.11
1.69
4.87
7.70
10.37
12.92
15.24
17.09
18.22
18.51
18.01
16.97
15.77
14.76
14.11
13.80
13.56
13.14
12.32
11.10
9.58
7.91
6.15
4.27
2.20
-0.09
-2.59
-5.20
-7.89
-10.61
-13.36
-15.99
-18.16
-19.40
-19.25
-17.52
-14.35
-10.25
-5.81
-1.55
2.25
5.56
8.49
11.08
13.30
15.01
16.08
16.43
16.12
15.33
14.31
13.24
12.24
11.28
10.28
9.10
7.73
6.23
4.78
3.52
2.51
1.66
0.80
-0.23
-1.57
-3.26
-5.33
-7.79
-10.61
-13.71
-16.91
-19.83
-22.05
-23.12
-22.76
-20.94
-17.90
-14.09
-10.01
-6.12
-2.65
0.31
2.82
5.00
6.92
8.62
10.08
11.30
12.26
12.97
13.45
13.71
13.74
13.54
13.12
12.48
11.65
10.69
9.66
8.67
7.84
7.22
6.83
6.55
6.19
5.50
4.21
2.12
-0.81
-4.35
-8.04
-11.29
-13.50
-14.25
-13.45
-11.32
-8.33
-5.01
-1.84
0.92
3.26
5.38
7.52
9.88
12.40
14.74
16.39
16.84
15.86
13.61
10.63
7.67
5.42
4.36
4.60
5.94
7.94
10.06
11.76
12.63
12.45
11.25
9.29
7.00
4.83
3.12
1.97
1.18
0.30
-1.17
-3.52
-6.59
-9.80
-12.32
-13.35
-12.50
-9.88
-6.02
-1.59
2.80
6.78
10.21
12.99
15.03
16.17
16.31
15.42
13.67
11.37
8.95
6.86
5.43
4.77
4.69
4.77
4.51
3.50
1.62
-0.94
-3.83
-6.69
-9.32
-11.72
-13.98
-16.18
-18.27
-20.14
-21.65
-22.77
-23.54
-23.93
-23.86
-23.14
-21.63
-19.32
-16.46
-13.48
-10.75
-8.54
-6.82
-5.35
-3.90
-2.33
-0.71
0.73
1.73
2.11
1.82
0.97
-0.30
-1.77
-3.26
-4.59
-5.61
-6.24
-6.50
-6.49
-6.34
-6.16
-6.03
-6.00
-6.15
-6.56
-7.35
-8.57
-10.25
-12.29
-14.50
-16.63
-18.30
-19.14
-18.84
-17.21
-14.38
-10.68
-6.65
-2.79
0.56
3.31
5.51
7.26
8.59
9.45
9.77
9.53
8.80
7.76
6.65
5.68
4.99
4.61
4.42
4.22
3.73
2.78
1.31
-0.48
-2.30
-3.82
-4.85
-5.46
-5.91
-6.51
-7.53
-9.11
-11.20
-13.60
-16.02
-18.12
-19.54
-19.96
-19.19
-17.20
-14.21
-10.59
-6.79
-3.18
-0.01
2.67
4.90
6.72
8.16
9.13
9.52
9.26
8.36
7.02
5.58
4.43
3.92
4.26
5.38
7.03
8.74
10.04
10.57
10.16
8.92
7.16
5.24
3.44
1.84
0.29
-1.49
-3.75
-6.58
-9.81
-13.07
-15.87
-17.75
-18.39
-17.67
-15.67
-12.63
-8.89
-4.84
-0.84
2.80
5.91
8.44
10.47
12.13
13.54
14.78
15.86
16.76
17.46
17.98
18.44
18.97
19.65
20.45
21.20
21.66
21.60
20.97
19.88
18.60
17.40
16.42
15.60
14.73
13.61
12.17
10.55
9.08
8.12
7.95
8.72
10.40
12.80
15.51
17.97
19.41
19.12
16.58
11.75
5.09
-2.54
-10.14
-16.88
-22.28
-26.24
-28.91
-30.55
-31.43
-31.71
-31.54
-31.03
-30.29
-29.45
-28.54
-27.54
-26.30
-24.70
-22.67
-20.26
-17.67
-15.23
-13.27
-12.08
-11.80
-12.36
-13.50
-14.84
-15.91
-16.34
-15.94
-14.81
-13.28
-11.85
-10.97
-10.85
-11.41
-12.35
-13.24
-13.79
-13.90
-13.66
-13.34
-13.18
-13.30
-13.66
-14.07
-14.29
-14.11
-13.43
-12.33
-11.00
-9.75
-8.82
-8.36
-8.38
-8.78
-9.41
-10.20
-11.15
-12.34
-13.86
-15.74
-17.91
-20.29
-22.74
-25.15
-27.32
-29.00
-29.85
-29.52
-27.75
-24.52
-20.10
-14.93
-9.60
-4.57
-0.14
3.58
6.65
9.16
11.17
12.66
13.55
13.78
13.43
12.69
11.85
11.15
10.65
10.23
9.67
8.78
7.58
6.23
4.97
3.94
3.06
2.09
0.73
-1.21
-3.77
-6.82
-10.15
-13.56
-16.80
-19.57
-21.48
-22.10
-21.12
-18.49
-14.49
-9.70
-4.84
-0.46
3.21
6.26
8.98
11.57
13.96
15.83
16.78
16.59
15.39
13.64
11.94
10.75
10.19
10.04
9.88
9.33
8.24
6.76
5.26
4.12
3.59
3.64
4.00
4.22
3.86
2.66
0.52
-2.44
-5.88
-9.34
-12.24
-13.97
-14.06
-12.34
-8.99
-4.54
0.30
4.90
8.93
12.31
15.23
17.89
20.43
22.79
24.78
26.20
26.88
26.76
25.93
24.56
22.91
21.21
19.62
18.12
16.62
15.01
13.26
11.48
9.87
8.56
7.56
6.61
5.38
3.53
0.93
-2.24
-5.59
-8.57
-10.67
-11.52
-11.01
-9.24
-6.49
-3.10
0.64
4.50
8.32
12.01
15.43
18.41
20.79
22.46
23.40
23.72
23.54
23.03
22.28
21.36
20.29
19.13
17.89
16.60
15.27
13.90
12.52
11.20
10.05
9.15
8.53
8.04
7.47
6.57
5.13
3.04
0.36
-2.68
-5.70
-8.19
-9.66
-9.70
-8.17
-5.25
-1.35
3.01
7.37
11.41
15.00
18.11
20.68
22.62
23.71
23.79
22.85
21.05
18.84
16.74
15.19
14.33
14.01
13.81
13.29
12.16
10.38
8.13
5.66
3.15
0.64
-1.89
-4.52
-7.16
-9.69
-11.88
-13.58
-14.81
-15.71
-16.49
-17.19
-17.64
-17.38
-15.94
-13.09
-8.99
-4.26
0.32
4.09
6.80
8.57
9.78
10.78
11.69
12.39
12.69
12.49
11.93
11.24
10.70
10.41
10.30
10.17
9.80
9.04
7.84
6.27
4.43
2.50
0.64
-0.96
-2.15
-2.86
-3.20
-3.41
-3.90
-5.03
-7.02
-9.79
-12.87
-15.51
-16.88
-16.37
-13.85
-9.69
-4.60
0.65
5.51
9.80
13.56
16.93
19.93
22.43
24.26
25.30
25.63
25.49
25.16
24.82
24.49
24.04
23.26
21.98
20.14
17.82
15.20
12.55
10.07
7.93
6.16
4.64
3.17
1.47
-0.76
-3.69
-7.32
-11.38
-15.37
-18.76
-21.05
-22.01
-21.62
-20.10
-17.76
-15.01
-12.21
-9.68
-7.58
-5.87
-4.34
-2.74
-0.95
0.96
2.70
3.95
4.57
4.75
4.92
5.52
6.71
8.34
10.01
11.41
12.47
13.42
14.60
16.17
17.85
19.00
18.81
16.73
12.70
7.26
1.27
-4.46
-9.40
-13.43
-16.65
-19.16
-20.93
-21.76
-21.45
-19.99
-17.69
-15.01
-12.45
-10.28
-8.51
-6.91
-5.20
-3.33
-1.50
-0.14
0.28
-0.46
-2.20
-4.34
-6.04
-6.52
-5.37
-2.68
0.95
4.66
7.57
9.09
9.08
7.87
6.16
4.70
3.98
4.04
4.40
4.35
3.35
1.31
-1.32
-3.72
-5.15
-5.21
-4.01
-2.00
0.30
2.52
4.50
6.31
8.01
9.56
10.84
11.67
11.90
11.51
10.60
9.31
7.86
6.38
5.01
3.85
2.99
2.49
2.42
2.74
3.29
3.82
4.08
3.82
2.89
1.26
-0.95
-3.45
-5.86
-7.85
-9.31
-10.45
-11.73
-13.64
-16.34
-19.58
-22.66
-24.76
-25.35
-24.39
-22.25
-19.51
-16.67
-13.95
-11.41
-9.05
-6.91
-5.07
-3.59
-2.40
-1.34
-0.25
0.98
2.34
3.67
4.79
5.48
5.63
5.24
4.40
3.30
2.12
0.99
-0.14
-1.41
-3.00
-5.00
-7.32
-9.71
-11.93
-13.85
-15.51
-17.08
-18.75
-20.55
-22.31
-23.70
-24.29
-23.77
-22.00
-19.14
-15.53
-11.67
-7.97
-4.73
-2.04
0.16
2.01
3.63
5.05
6.27
7.21
7.84
8.22
8.48
8.79
9.32
10.10
11.02
11.81
12.20
11.97
11.09
9.66
7.89
6.00
4.17
2.54
1.14
-0.10
-1.37
-2.95
-5.12
-8.03
-11.60
-15.40
-18.83
-21.31
-22.42
-22.10
-20.57
-18.27
-15.60
-12.84
-10.04
-7.10
-3.95
-0.55
2.96
6.41
9.62
12.52
15.10
17.40
19.46
21.27
22.79
23.93
24.63
24.89
24.79
24.46
24.06
23.70
23.33
22.78
21.82
20.27
18.12
15.52
12.74
10.00
7.43
5.00
2.59
0.02
-2.82
-5.91
-9.06
-11.85
-13.80
-14.51
-13.89
-12.25
-10.17
-8.28
-6.95
-6.19
-5.69
-5.08
-4.18
-3.11
-2.16
-1.64
-1.70
-2.21
-2.92
-3.55
-3.95
-4.07
-3.91
-3.49
-2.86
-2.07
-1.28
-0.67
-0.42
-0.64
-1.28
-2.20
-3.24
-4.28
-5.30
-6.34
-7.47
-8.72
-10.08
-11.50
-12.89
-14.15
-15.11
-15.57
-15.32
-14.23
-12.31
-9.77
-6.94
-4.16
-1.69
0.40
2.17
3.72
5.07
6.14
6.78
6.88
6.48
5.81
5.19
4.85
4.85
5.06
5.25
5.18
4.72
3.91
2.80
1.48
0.03
-1.46
-2.87
-4.05
-4.96
-5.67
-6.39
-7.42
-8.94
-10.95
-13.24
-15.49
-17.35
-18.61
-19.13
-18.87
-17.80
-15.98
-13.51
-10.61
-7.61
-4.81
-2.40
-0.41
1.30
2.92
4.53
6.10
7.40
8.23
8.47
8.22
7.72
7.20
6.79
6.38
5.80
4.86
3.59
2.18
0.93
0.04
-0.47
-0.80
-1.25
-2.01
-3.14
-4.50
-5.94
-7.37
-8.88
-10.60
-12.64
-14.91
-17.17
-19.02
-20.05
-20.04
-18.88
-16.72
-13.77
-10.35
-6.75
-3.26
-0.11
2.57
4.75
6.56
8.15
9.64
11.07
12.41
13.54
14.39
14.94
15.24
15.37
15.41
15.39
15.29
15.10
14.85
14.60
14.48
14.50
14.60
14.52
14.00
12.80
10.91
8.55
6.10
3.93
2.20
0.78
-0.66
-2.46
-4.80
-7.58
-10.36
-12.62
-13.85
-13.79
-12.48
-10.14
-7.15
-3.80
-0.32
3.16
6.49
9.47
11.90
13.61
14.55
14.83
14.72
14.54
14.55
14.80
15.17
15.39
15.24
14.66
13.76
12.75
11.80
10.92
9.94
8.69
7.06
5.15
3.19
1.39
-0.17
-1.58
-3.07
-4.84
-7.01
-9.56
-12.35
-15.12
-17.54
-19.27
-20.06
-19.78
-18.51
-16.47
-13.96
-11.26
-8.53
-5.87
-3.35
-1.02
1.00
2.61
3.79
4.56
5.03
5.27
5.31
5.07
4.46
3.44
2.08
0.55
-0.88
-2.06
-2.90
-3.49
-3.99
-4.55
-5.26
-6.09
-6.94
-7.74
-8.47
-9.19
-10.07
-11.27
-12.87
-14.90
-17.21
-19.55
-21.56
-22.85
-23.08
-22.03
-19.72
-16.39
-12.44
-8.29
-4.26
-0.54
2.85
5.89
8.49
10.49
11.78
12.32
12.28
11.99
11.83
12.04
12.63
13.35
13.80
13.66
12.85
11.54
10.05
8.66
7.47
6.37
5.15
3.65
1.88
0.01
-1.76
-3.31
-4.66
-5.95
-7.40
-9.20
-11.47
-14.19
-17.14
-19.89
-21.89
-22.60
-21.73
-19.36
-15.90
-12.01
-8.23
-4.91
-2.13
0.22
2.26
4.01
5.41
6.34
6.74
6.67
6.27
5.72
5.17
4.65
4.07
3.30
2.24
0.90
-0.59
-2.06
-3.36
-4.48
-5.52
-6.64
-7.96
-9.51
-11.15
-12.71
-14.00
-14.96
-15.60
-16.09
-16.59
-17.26
-18.14
-19.22
-20.39
-21.54
-22.47
-22.94
-22.65
-21.35
-18.94
-15.47
-11.16
-6.33
-1.35
3.50
7.99
11.98
15.36
18.09
20.16
21.62
22.58
23.12
23.36
23.39
23.33
23.28
23.32
23.42
23.44
23.20
22.54
21.45
20.03
18.48
16.97
15.54
14.09
12.42
10.48
8.36
6.37
4.80
3.74
2.96
1.96
0.16
-2.76
-6.69
-11.05
-14.99
-17.60
-18.30
-16.90
-13.66
-9.19
-4.25
0.44
4.30
7.03
8.59
9.18
9.13
8.79
8.49
8.41
8.61
9.07
9.66
10.23
10.63
10.76
10.58
10.20
9.81
9.61
9.73
10.18
10.78
11.36
11.72
11.82
11.68
11.36
10.91
10.36
9.70
8.88
7.85
6.54
4.86
2.86
0.76
-1.03
-2.02
-1.79
-0.26
2.29
5.27
8.08
10.29
11.81
12.81
13.56
14.22
14.85
15.36
15.60
15.49
14.97
14.07
12.81
11.30
9.72
8.24
7.04
6.12
5.40
4.66
3.71
2.46
0.97
-0.59
-2.04
-3.23
-4.17
-4.98
-5.89
-7.20
-9.12
-11.76
-15.00
-18.52
-21.79
-24.26
-25.42
-25.04
-23.16
-20.12
-16.46
-12.77
-9.54
-7.00
-5.11
-3.63
-2.26
-0.79
0.77
2.26
3.47
4.24
4.59
4.60
4.42
4.14
3.80
3.45
3.17
3.04
3.09
3.22
3.23
2.91
2.11
0.90
-0.51
-1.81
-2.77
-3.30
-3.46
-3.46
-3.56
-4.11
-5.36
-7.40
-10.02
-12.63
-14.45
-14.77
-13.24
-10.05
-5.93
-1.77
1.61
3.78
4.75
4.85
4.52
4.13
3.89
3.83
3.84
3.84
3.72
3.47
3.13
2.71
2.24
1.70
1.06
0.34
-0.41
-1.19
-2.03
-3.05
-4.37
-6.05
-8.00
-10.03
-11.87
-13.24
-14.03
-14.24
-14.05
-13.81
-13.95
-14.91
-16.96
-19.99
-23.45
-26.49
-28.23
-28.16
-26.25
-22.98
-19.09
-15.31
-12.06
-9.46
-7.38
-5.59
-3.88
-2.09
-0.14
1.98
4.23
6.47
8.54
10.19
11.23
11.54
11.12
10.09
8.67
7.15
5.82
4.82
4.10
3.46
2.63
1.44
-0.10
-1.79
-3.36
-4.63
-5.60
-6.46
-7.55
-9.11
-11.24
-13.81
-16.53
-19.02
-20.84
-21.56
-20.86
-18.60
-14.99
-10.61
-6.21
-2.48
0.21
1.94
3.10
4.09
5.08
5.95
6.41
6.32
5.77
5.12
4.73
4.77
5.12
5.49
5.62
5.42
5.01
4.62
4.41
4.41
4.48
4.43
4.05
3.24
2.00
0.40
-1.38
-3.24
-5.10
-6.99
-8.99
-11.14
-13.30
-15.19
-16.37
-16.42
-15.13
-12.57
-9.10
-5.23
-1.45
1.89
4.65
6.86
8.71
10.39
12.02
13.58
14.93
15.90
16.40
16.48
16.35
16.24
16.28
16.40
16.40
16.09
15.34
14.22
12.87
11.44
9.94
8.36
6.74
5.16
3.78
2.70
1.83
0.90
-0.44
-2.40
-4.97
-7.86
-10.59
-12.65
-13.62
-13.25
-11.45
-8.39
-4.42
-0.03
4.24
7.97
10.97
13.28
15.13
16.71
18.13
19.32
20.03
20.03
19.17
17.46
15.10
12.41
9.78
7.53
5.94
5.15
5.15
5.79
6.84
8.02
9.03
9.63
9.65
9.04
7.81
6.02
3.69
0.75
-2.95
-7.53
-12.93
-18.79
-24.53
-29.47
-33.04
-35.02
-35.52
-34.93
-33.69
-32.13
-30.43
-28.69
-27.02
-25.51
-24.13
-22.74
-21.05
-18.89
-16.31
-13.72
-11.66
-10.65
-10.82
-11.97
-13.60
-15.21
-16.48
-17.43
-18.28
-19.35
-20.88
-22.97
-25.51
-28.26
-30.87
-33.04
-34.62
-35.64
-36.32
-36.93
-37.66
-38.57
-39.55
-40.41
-40.93
-40.87
-39.93
-37.80
-34.29
-29.44
-23.66
-17.65
-12.17
-7.75
-4.46
-1.86
0.70
3.73
7.32
11.09
14.45
16.96
18.62
19.82
21.05
22.53
23.96
24.81
24.54
23.15
21.19
19.55
18.96
19.48
20.49
20.89
19.75
16.78
12.55
8.31
5.55
5.40
8.29
13.86
21.22
29.32
37.35
44.82
51.50
57.21
61.77
64.95
66.60
66.78
65.68
63.47
60.19
55.69
49.82
42.68
34.77
26.95
20.10
14.78
11.03
8.38
6.13
3.68
0.79
-2.40
-5.50
-8.12
-10.06
-11.31
-12.03
-12.42
-12.67
-12.96
-13.44
-14.22
-15.37
-16.87
-18.65
-20.55
-22.33
-23.67
-24.12
-23.18
-20.48
-15.97
-10.03
-3.37
3.17
8.93
13.57
17.04
19.43
20.82
21.24
20.72
19.38
17.50
15.43
13.54
12.04
10.96
10.17
9.42
8.50
7.34
6.02
4.72
3.64
2.81
2.11
1.32
0.26
-1.09
-2.57
-3.98
-5.29
-6.74
-8.76
-11.70
-15.60
-19.97
-23.94
-26.46
-26.77
-24.61
-20.24
-14.36
-7.90
-1.82
3.06
6.18
7.40
7.10
6.10
5.33
5.50
6.84
9.01
11.44
13.62
15.39
16.89
18.38
19.91
21.29
22.14
22.14
21.25
19.72
17.96
16.42
15.29
14.49
13.70
12.50
10.60
7.90
4.50
0.63
-3.45
-7.41
-10.86
-13.34
-14.42
-13.88
-11.85
-8.77
-5.27
-1.91
1.02
3.49
5.60
7.41
8.83
9.67
9.80
9.28
8.34
7.34
6.56
6.14
6.02
6.00
5.83
5.38
4.65
3.74
2.83
2.07
1.54
1.19
0.90
0.51
-0.13
-1.08
-2.32
-3.81
-5.51
-7.41
-9.54
-11.91
-14.36
-16.51
-17.82
-17.80
-16.14
-12.98
-8.84
-4.39
-0.26
3.28
6.23
8.79
11.11
13.18
14.79
15.74
15.95
15.53
14.74
13.90
13.23
12.80
12.56
12.39
12.21
12.05
11.94
11.94
12.07
12.25
12.35
12.25
11.86
11.15
10.17
9.01
7.77
6.55
5.38
4.22
2.93
1.32
-0.74
-3.26
-5.97
-8.40
-9.96
-10.24
-9.08
-6.66
-3.43
0.10
3.51
6.53
9.09
11.20
12.91
14.27
15.27
15.89
16.13
15.95
15.39
14.54
13.48
12.37
11.33
10.47
9.85
9.49
9.33
9.24
9.03
8.53
7.62
6.33
4.79
3.20
1.72
0.41
-0.80
-2.02
-3.42
-5.12
-7.18
-9.57
-12.12
-14.55
-16.47
-17.50
-17.35
-15.96
-13.51
-10.34
-6.93
-3.66
-0.83
1.44
3.16
4.42
5.31
5.89
6.16
6.09
5.73
5.13
4.45
3.84
3.40
3.16
3.03
2.89
2.63
2.24
1.75
1.23
0.68
0.05
-0.75
-1.80
-3.06
-4.39
-5.59
-6.54
-7.22
-7.81
-8.61
-9.87
-11.72
-14.00
-16.30
-18.09
-18.88
-18.41
-16.73
-14.18
-11.25
-8.36
-5.78
-3.57
-1.67
-0.02
1.39
2.48
3.17
3.48
3.49
3.40
3.36
3.40
3.47
3.44
3.20
2.80
2.37
2.03
1.85
1.72
1.42
0.76
-0.35
-1.80
-3.35
-4.73
-5.79
-6.45
-6.80
-6.97
-7.14
-7.51
-8.27
-9.60
-11.52
-13.86
-16.22
-18.11
-19.05
-18.79
-17.37
-15.11
-12.46
-9.82
-7.44
-5.31
-3.30
-1.26
0.85
2.86
4.49
5.48
5.70
5.28
4.52
3.78
3.35
3.27
3.45
3.68
3.83
3.87
3.87
3.93
4.02
4.05
3.78
3.01
1.69
-0.06
-1.95
-3.64
-4.87
-5.59
-5.93
-6.20
-6.72
-7.73
-9.26
-11.20
-13.28
-15.21
-16.71
-17.57
-17.60
-16.71
-14.96
-12.51
-9.69
-6.87
-4.38
-2.34
-0.68
0.81
2.35
3.99
5.58
6.88
7.69
7.97
7.93
7.81
7.86
8.12
8.50
8.79
8.81
8.51
7.97
7.36
6.82
6.45
6.26
6.19
6.14
6.01
5.77
5.40
4.93
4.40
3.84
3.24
2.58
1.83
0.97
-0.04
-1.25
-2.73
-4.46
-6.28
-7.88
-8.87
-8.92
-7.96
-6.15
-3.87
-1.54
0.50
2.16
3.50
4.66
5.70
6.56
7.10
7.22
6.96
6.48
6.00
5.66
5.51
5.40
5.17
4.69
3.96
3.17
2.52
2.21
2.25
2.50
2.66
2.44
1.67
0.38
-1.24
-2.95
-4.55
-6.02
-7.37
-8.71
-10.07
-11.45
-12.88
-14.36
-15.85
-17.22
-18.23
-18.53
-17.87
-16.17
-13.59
-10.53
-7.40
-4.58
-2.25
-0.45
0.91
1.98
2.84
3.52
4.00
4.24
4.21
3.91
3.39
2.70
1.96
1.26
0.71
0.35
0.18
0.11
0.02
-0.17
-0.54
-1.12
-1.88
-2.81
-3.85
-4.90
-5.92
-6.85
-7.70
-8.53
-9.44
-10.53
-11.84
-13.44
-15.35
-17.54
-19.92
-22.23
-24.08
-25.02
-24.71
-23.08
-20.33
-16.91
-13.34
-9.98
-6.95
-4.16
-1.48
1.10
3.41
5.20
6.24
6.49
6.14
5.56
5.13
5.14
5.64
6.51
7.45
8.17
8.47
8.31
7.82
7.19
6.58
6.01
5.41
4.66
3.74
2.74
1.85
1.18
0.70
0.21
-0.56
-1.84
-3.73
-6.13
-8.81
-11.54
-14.12
-16.39
-18.22
-19.40
-19.72
-19.00
-17.18
-14.39
-10.89
-7.03
-3.16
0.44
3.61
6.26
8.37
9.98
11.12
11.85
12.23
12.33
12.26
12.17
12.21
12.49
12.98
13.50
13.80
13.70
13.18
12.46
11.83
11.51
11.51
11.61
11.47
10.89
9.83
8.47
7.12
5.99
5.21
4.70
4.28
3.69
2.71
1.21
-0.81
-3.24
-5.87
-8.41
-10.60
-12.17
-12.89
-12.54
-11.02
-8.36
-4.80
-0.80
3.14
6.60
9.36
11.44
12.98
14.14
14.90
15.22
15.02
14.33
13.32
12.27
11.37
10.68
10.10
9.44
8.63
7.67
6.74
6.04
5.69
5.63
5.64
5.47
4.87
3.79
2.29
0.62
-0.94
-2.20
-3.18
-4.08
-5.25
-7.00
-9.38
-12.24
-15.17
-17.76
-19.70
-20.84
-21.15
-20.63
-19.23
-16.94
-13.87
-10.26
-6.54
-3.09
-0.17
2.16
4.02
5.54
6.79
7.77
8.42
8.71
8.68
8.44
8.10
7.78
7.57
7.51
7.56
7.64
7.60
7.30
6.70
5.86
4.93
4.05
3.27
2.52
1.65
0.58
-0.69
-2.02
-3.22
-4.17
-4.96
-5.78
-6.94
-8.64
-10.86
-13.37
-15.73
-17.55
-18.51
-18.55
-17.75
-16.28
-14.24
-11.66
-8.47
-4.61
-0.04
5.22
11.17
17.79
24.92
32.08
38.30
42.31
42.83
39.16
31.56
21.34
10.43
0.76
-6.34
-10.38
-11.65
-10.82
-8.57
-5.50
-2.10
1.10
3.48
4.51
3.87
1.59
-1.95
-6.15
-10.34
-13.94
-16.54
-17.99
-18.45
-18.32
-18.22
-18.71
-20.12
-22.36
-24.93
-27.06
-28.05
-27.49
-25.41
-22.16
-18.23
-14.06
-9.89
-5.85
-1.99
1.62
4.84
7.54
9.65
11.18
12.27
13.09
13.80
14.45
15.04
15.46
15.60
15.39
14.82
14.00
13.04
12.07
11.17
10.39
9.73
9.19
8.75
8.34
7.89
7.30
6.56
5.68
4.75
3.84
2.96
2.09
1.11
-0.11
-1.74
-3.85
-6.41
-9.23
-11.97
-14.24
-15.70
-16.13
-15.52
-13.99
-11.74
-8.92
-5.65
-2.08
1.58
5.00
7.86
9.89
11.01
11.37
11.22
10.89
10.62
10.52
10.64
10.88
11.11
11.17
10.92
10.27
9.27
8.11
7.04
6.26
5.84
5.63
5.32
4.67
3.57
2.16
0.75
-0.35
-0.97
-1.13
-1.04
-1.03
-1.37
-2.25
-3.72
-5.69
-7.92
-10.03
-11.57
-12.10
-11.35
-9.31
-6.29
-2.81
0.56
3.36
5.42
6.85
7.87
8.72
9.51
10.19
10.64
10.77
10.55
10.07
9.42
8.69
7.92
7.10
6.27
5.48
4.84
4.47
4.36
4.43
4.49
4.33
3.78
2.77
1.37
-0.25
-1.87
-3.33
-4.54
-5.54
-6.46
-7.44
-8.61
-10.04
-11.74
-13.57
-15.33
-16.68
-17.33
-17.07
-15.84
-13.78
-11.14
-8.24
-5.36
-2.73
-0.48
1.36
2.85
4.12
5.30
6.43
7.45
8.21
8.60
8.60
8.33
7.97
7.64
7.32
6.93
6.37
5.66
4.92
4.38
4.14
4.15
4.23
4.08
3.54
2.60
1.47
0.43
-0.30
-0.73
-1.03
-1.50
-2.40
-3.84
-5.76
-7.88
-9.88
-11.41
-12.23
-12.23
-11.43
-10.01
-8.15
-6.09
-3.96
-1.87
0.16
2.06
3.73
5.08
6.03
6.58
6.77
6.66
6.31
5.76
5.06
4.31
3.65
3.17
2.92
2.85
2.82
2.71
2.47
2.11
1.72
1.31
0.85
0.25
-0.60
-1.70
-2.92
-4.03
-4.83
-5.26
-5.45
-5.71
-6.40
-7.73
-9.68
-11.98
-14.19
-15.83
-16.54
-16.10
-14.51
-11.97
-8.83
-5.53
-2.52
-0.06
1.79
3.22
4.49
5.77
7.04
8.12
8.81
9.01
8.85
8.58
8.41
8.38
8.32
8.00
7.28
6.26
5.16
4.24
3.63
3.25
2.93
2.48
1.87
1.14
0.32
-0.61
-1.74
-3.14
-4.75
-6.34
-7.69
-8.62
-9.21
-9.69
-10.35
-11.33
-12.55
-13.71
-14.40
-14.28
-13.20
-11.29
-8.84
-6.24
-3.78
-1.62
0.29
2.08
3.86
5.64
7.30
8.67
9.59
10.09
10.31
10.52
10.97
11.84
13.09
14.54
15.85
16.70
16.89
16.43
15.52
14.37
13.15
11.84
10.32
8.45
6.21
3.79
1.48
-0.44
-1.83
-2.63
-2.91
-2.68
-2.01
-1.00
0.15
1.08
1.47
1.07
-0.11
-1.85
-3.81
-5.59
-6.92
-7.66
-7.81
-7.51
-7.04
-6.72
-6.86
-7.61
-8.91
-10.51
-12.09
-13.38
-14.19
-14.43
-13.98
-12.74
-10.65
-7.80
-4.54
-1.40
1.10
2.61
3.09
2.75
1.96
1.06
0.29
-0.28
-0.68
-0.99
-1.28
-1.67
-2.19
-2.90
-3.82
-5.02
-6.53
-8.33
-10.24
-11.86
-12.62
-11.96
-9.52
-5.29
0.36
6.73
13.08
18.71
23.11
25.91
26.94
26.10
23.48
19.42
14.43
9.23
4.43
0.44
-2.63
-4.89
-6.60
-7.98
-9.14
-10.15
-11.05
-11.92
-12.80
-13.54
-13.78
-13.07
-11.07
-7.78
-3.66
0.49
3.81
5.67
5.82
4.45
2.08
-0.61
-2.93
-4.37
-4.69
-3.98
-2.67
-1.30
-0.37
-0.10
-0.40
-0.96
-1.36
-1.31
-0.67
0.48
1.91
3.30
4.25
4.42
3.62
1.87
-0.47
-2.89
-4.87
-6.03
-6.25
-5.60
-4.27
-2.46
-0.37
1.74
3.51
4.58
4.64
3.59
1.53
-1.24
-4.37
-7.48
-10.28
-12.55
-14.15
-15.04
-15.31
-15.18
-14.91
-14.68
-14.57
-14.49
-14.27
-13.70
-12.60
-10.82
-8.32
-5.18
-1.72
1.55
4.03
5.18
4.77
2.91
0.11
-2.90
-5.40
-6.94
-7.35
-6.84
-5.83
-4.87
-4.42
-4.81
-6.17
-8.41
-11.23
-14.15
-16.65
-18.24
-18.63
-17.82
-16.13
-14.13
-12.41
-11.48
-11.52
-12.38
-13.53
-14.30
-14.04
-12.42
-9.52
-5.81
-1.97
1.38
3.86
5.35
5.92
5.66
4.62
2.78
0.18
-2.98
-6.39
-9.69
-12.63
-15.11
-17.25
-19.28
-21.55
-24.35
-27.88
-32.05
-36.41
-40.12
-42.18
-41.80
-38.81
-33.83
-28.02
-22.60
-18.18
-14.37
-9.84
-2.74
8.56
24.84
45.83
70.27
96.34
122.12
145.91
166.46
182.99
195.24
203.34
207.63
208.31
205.21
197.71
185.11
167.31
145.55
122.58
102.10
87.47
80.29
79.66
82.46
84.51
82.14
73.20
57.36
35.62
9.63
-18.72
-47.37
-73.90
-95.63
-110.10
-115.87
-113.08
-103.64
-90.65
-77.45
-66.55
-59.08
-54.73
-52.39
-50.83
-49.34
-47.76
-46.36
-45.32
-44.54
-43.62
-42.07
-39.58
-36.16
-32.01
-27.52
-23.05
-18.92
-15.35
-12.55
-10.64
-9.67
-9.60
-10.18
-11.11
-12.03
-12.61
-12.64
-12.04
-10.92
-9.52
-8.25
-7.50
-7.65
-8.85
-11.00
-13.71
-16.43
-18.56
-19.73
-19.83
-19.08
-17.89
-16.65
-15.61
-14.82
-14.22
-13.65
-13.02
-12.25
-11.30
-10.15
-8.85
-7.55
-6.51
-6.00
-6.15
-6.87
-7.78
-8.43
-8.52
-8.06
-7.38
-6.91
-6.87
-7.22
-7.67
-7.89
-7.73
-7.23
-6.61
-6.06
-5.72
-5.61
-5.70
-5.96
-6.33
-6.74
-7.06
-7.14
-6.93
-6.45
-5.78
-4.99
-4.16
-3.31
-2.49
-1.85
-1.55
-1.76
-2.48
-3.52
-4.53
-5.15
-5.19
-4.70
-4.02
-3.56
-3.63
-4.30
-5.35
-6.45
-7.32
-7.82
-8.01
-8.07
-8.22
-8.56
-9.12
-9.84
-10.61
-11.40
-12.14
-12.81
-13.36
-13.67
-13.64
-13.20
-12.37
-11.24
-9.92
-8.53
-7.15
-5.83
-4.62
-3.64
-2.97
-2.67
-2.66
-2.80
-2.86
-2.73
-2.36
-1.84
-1.31
-0.89
-0.67
-0.71
-1.05
-1.65
-2.44
-3.26
-3.96
-4.47
-4.83
-5.19
-5.72
-6.53
-7.58
-8.69
-9.60
-10.11
-10.11
-9.60
-8.67
-7.44
-6.06
-4.67
-3.38
-2.26
-1.35
-0.58
0.14
0.90
1.73
2.58
3.34
3.85
4.02
3.83
3.37
2.75
2.12
1.59
1.21
0.98
0.82
0.63
0.28
-0.32
-1.21
-2.29
-3.39
-4.28
-4.80
-4.92
-4.79
-4.65
-4.75
-5.20
-5.94
-6.75
-7.37
-7.60
-7.40
-6.84
-6.06
-5.15
-4.10
-2.94
-1.70
-0.49
0.55
1.33
1.91
2.46
3.13
3.95
4.78
5.34
5.42
4.96
4.15
3.31
2.74
2.58
2.75
3.05
3.28
3.34
3.29
3.27
3.40
3.68
3.94
3.96
3.58
2.81
1.85
0.98
0.40
0.06
-0.26
-0.87
-1.93
-3.32
-4.67
-5.51
-5.49
-4.57
-2.97
-1.07
0.82
2.50
3.95
5.21
6.27
7.04
7.42
7.36
6.94
6.35
5.85
5.63
5.75
6.11
6.53
6.80
6.80
6.48
5.86
5.01
4.02
2.95
1.89
0.91
0.04
-0.71
-1.35
-1.89
-2.30
-2.59
-2.81
-3.08
-3.60
-4.58
-6.09
-8.07
-10.23
-12.16
-13.47
-13.91
-13.45
-12.25
-10.57
-8.66
-6.75
-4.98
-3.51
-2.42
-1.74
-1.41
-1.29
-1.22
-1.05
-0.76
-0.33
0.23
0.90
1.66
2.33
2.66
2.39
1.36
-0.29
-2.22
-3.94
-5.06
-5.47
-5.34
-5.04
-4.96
-5.36
-6.22
-7.34
-8.39
-9.11
-9.40
-9.36
-9.24
-9.37
-9.97
-11.09
-12.57
-14.12
-15.37
-15.98
-15.73
-14.58
-12.63
-10.14
-7.48
-4.95
-2.70
-0.76
0.94
2.48
3.85
4.98
5.77
6.21
6.38
6.44
6.52
6.70
6.92
7.08
7.03
6.70
6.07
5.27
4.48
3.86
3.56
3.54
3.72
3.87
3.79
3.34
2.48
1.30
-0.02
-1.27
-2.29
-3.01
-3.47
-3.83
-4.33
-5.19
-6.54
-8.36
-10.49
-12.65
-14.47
-15.61
-15.84
-15.05
-13.36
-11.04
-8.44
-5.87
-3.55
-1.55
0.15
1.54
2.62
3.39
3.88
4.18
4.45
4.83
5.36
6.01
6.69
7.33
7.88
8.35
8.72
8.98
9.09
8.98
8.65
8.09
7.34
6.43
5.40
4.26
3.07
1.85
0.66
-0.45
-1.46
-2.33
-3.08
-3.79
-4.54
-5.43
-6.52
-7.85
-9.34
-10.89
-12.32
-13.43
-14.01
-13.88
-12.98
-11.36
-9.21
-6.80
-4.34
-1.97
0.29
2.43
4.46
6.31
7.84
8.93
9.57
9.82
9.89
10.02
10.33
10.83
11.39
11.76
11.80
11.47
10.91
10.34
9.99
9.91
10.00
10.02
9.74
9.09
8.13
7.03
5.99
5.10
4.35
3.62
2.80
1.80
0.59
-0.79
-2.31
-3.93
-5.57
-7.06
-8.18
-8.67
-8.38
-7.30
-5.58
-3.45
-1.09
1.37
3.93
6.56
9.14
11.43
13.23
14.37
14.86
14.90
14.72
14.53
14.43
14.40
14.33
14.13
13.69
13.00
12.12
11.14
10.13
9.18
8.28
7.43
6.57
5.60
4.43
3.01
1.33
-0.53
-2.44
-4.27
-5.89
-7.31
-8.61
-9.93
-11.44
-13.22
-15.20
-17.15
-18.72
-19.54
-19.30
-17.89
-15.41
-12.19
-8.66
-5.19
-2.05
0.64
2.84
4.57
5.85
6.73
7.32
7.77
8.24
8.85
9.61
10.35
10.85
10.95
10.59
9.95
9.31
8.95
9.00
9.38
9.83
9.98
9.55
8.41
6.66
4.49
2.17
-0.11
-2.24
-4.25
-6.16
-8.07
-10.07
-12.18
-14.41
-16.66
-18.68
-20.17
-20.73
-20.12
-18.30
-15.53
-12.21
-8.83
-5.77
-3.17
-1.05
0.72
2.24
3.59
4.78
5.77
6.54
7.08
7.37
7.44
7.31
7.03
6.66
6.24
5.79
5.33
4.90
4.53
4.22
3.94
3.56
2.98
2.15
1.06
-0.20
-1.52
-2.85
-4.22
-5.68
-7.33
-9.21
-11.30
-13.50
-15.63
-17.43
-18.66
-19.04
-18.39
-16.65
-13.95
-10.56
-6.87
-3.25
0.08
3.02
5.56
7.72
9.45
10.69
11.40
11.64
11.59
11.53
11.68
12.12
12.77
13.42
13.82
13.78
13.22
12.20
10.86
9.36
7.88
6.52
5.34
4.33
3.45
2.62
1.78
0.86
-0.14
-1.24
-2.48
-3.97
-5.83
-8.16
-10.97
-14.02
-16.92
-19.16
-20.32
-20.20
-18.84
-16.44
-13.28
-9.57
-5.50
-1.28
2.80
6.37
9.12
10.88
11.75
12.03
12.09
12.22
12.52
12.88
13.14
13.16
12.93
12.48
11.91
11.22
10.41
9.52
8.66
7.97
7.49
7.14
6.65
5.74
4.28
2.35
0.26
-1.69
-3.34
-4.79
-6.28
-8.08
-10.30
-12.81
-15.26
-17.25
-18.34
-18.24
-16.81
-14.11
-10.40
-6.10
-1.69
2.39
5.86
8.62
10.74
12.32
13.50
14.30
14.66
14.55
13.97
13.04
11.99
11.07
10.46
10.15
10.03
9.87
9.51
8.83
7.81
6.48
4.91
3.13
1.22
-0.70
-2.52
-4.17
-5.66
-7.15
-8.84
-10.92
-13.47
-16.32
-19.06
-21.15
-22.04
-21.40
-19.17
-15.64
-11.34
-6.82
-2.55
1.17
4.19
6.46
8.00
8.88
9.27
9.35
9.32
9.30
9.29
9.22
9.04
8.75
8.39
8.04
7.70
7.30
6.72
5.85
4.66
3.26
1.83
0.55
-0.49
-1.31
-2.07
-2.92
-4.00
-5.38
-7.07
-9.07
-11.32
-13.64
-15.75
-17.19
-17.48
-16.28
-13.56
-9.61
-4.97
-0.29
3.96
7.51
10.29
12.41
14.03
15.30
16.33
17.15
17.74
18.07
18.12
17.96
17.69
17.44
17.29
17.21
17.15
17.05
16.89
16.66
16.33
15.83
15.04
13.90
12.43
10.82
9.28
8.00
6.96
5.99
4.79
3.08
0.76
-1.99
-4.72
-6.90
-8.00
-7.76
-6.21
-3.70
-0.73
2.25
4.94
7.27
9.28
11.02
12.45
13.50
14.07
14.13
13.76
13.14
12.49
11.97
11.64
11.42
11.16
10.71
10.00
9.10
8.19
7.47
6.95
6.44
5.62
4.20
2.15
-0.29
-2.68
-4.70
-6.29
-7.71
-9.36
-11.56
-14.34
-17.47
-20.49
-22.94
-24.43
-24.70
-23.65
-21.33
-17.97
-13.96
-9.74
-5.76
-2.29
0.50
2.61
4.06
4.92
5.35
5.51
5.63
5.89
6.34
6.87
7.26
7.28
6.86
6.11
5.29
4.69
4.52
4.72
5.03
5.06
4.51
3.33
1.75
0.22
-0.87
-1.33
-1.32
-1.26
-1.62
-2.77
-4.77
-7.37
-10.15
-12.54
-14.03
-14.26
-13.07
-10.58
-7.11
-3.11
1.05
5.15
9.15
13.10
17.01
20.75
24.03
26.43
27.49
26.87
24.48
20.57
15.80
11.00
6.97
4.11
2.41
1.59
1.48
2.12
3.80
6.69
10.61
14.84
18.25
19.61
17.88
12.53
3.81
-7.13
-18.29
-27.16
-31.53
-30.34
-24.23
-15.39
-6.61
-0.20
3.00
3.59
3.16
3.35
5.24
9.08
14.44
20.44
26.05
30.29
32.42
32.11
29.64
25.82
21.75
18.53
16.84
16.75
17.63
18.33
17.37
13.35
5.45
-6.17
-20.21
-34.45
-46.37
-53.93
-56.16
-53.38
-46.94
-38.60
-29.98
-22.17
-15.65
-10.53
-6.74
-4.25
-3.04
-3.02
-4.02
-5.73
-7.77
-9.81
-11.60
-13.01
-13.86
-13.95
-12.94
-10.59
-6.86
-2.11
2.91
7.29
10.33
11.84
12.17
12.04
12.12
12.64
13.35
13.63
12.87
10.74
7.41
3.42
-0.59
-4.10
-6.94
-9.23
-11.21
-13.01
-14.56
-15.61
-15.92
-15.55
-14.88
-14.56
-15.25
-17.26
-20.47
-24.32
-28.05
-30.97
-32.61
-32.80
-31.64
-29.48
-26.87
-24.48
-22.88
-22.38
-22.73
-23.18
-22.64
-20.10
-15.03
-7.57
1.43
10.82
19.50
26.84
32.69
37.27
40.83
43.41
44.89
45.12
44.24
42.76
41.46
41.05
41.84
43.59
45.64
47.29
48.07
47.92
47.11
45.92
44.46
42.60
40.08
36.66
32.22
26.85
20.76
14.27
7.76
1.66
-3.62
-7.82
-10.91
-13.04
-14.57
-15.81
-16.99
-18.19
-19.35
-20.41
-21.35
-22.17
-22.89
-23.52
-24.03
-24.39
-24.65
-25.09
-26.25
-28.82
-33.34
-39.85
-47.60
-55.18
-60.95
-63.75
-63.38
-60.64
-57.00
-53.83
-51.86
-50.97
-50.48
-49.63
-48.03
-45.72
-43.06
-40.43
-38.03
-35.85
-33.88
-32.30
-31.53
-32.11
-34.44
-38.42
-43.32
-47.87
-50.62
-50.42
-46.80
-40.17
-31.57
-22.32
-13.55
-5.96
0.32
5.53
10.07
14.30
18.47
22.71
27.05
31.40
35.47
38.80
40.93
41.64
41.20
40.33
39.95
40.78
42.96
46.03
49.24
51.94
53.93
55.38
56.57
57.50
57.80
56.94
54.63
51.17
47.32
44.02
41.86
40.79
40.14
39.02
36.76
33.17
28.58
23.56
18.63
14.05
9.87
6.03
2.48
-0.80
-3.71
-6.14
-8.02
-9.32
-10.10
-10.53
-10.83
-11.28
-12.18
-13.78
-16.39
-20.23
-25.42
-31.79
-38.80
-45.52
-50.83
-53.77
-53.86
-51.31
-46.85
-41.47
-35.97
-30.78
-25.96
-21.46
-17.29
-13.66
-10.86
-9.14
-8.54
-8.96
-10.18
-12.02
-14.36
-17.11
-20.19
-23.47
-26.82
-30.05
-32.87
-34.85
-35.51
-34.46
-31.61
-27.25
-22.03
-16.71
-11.99
-8.27
-5.68
-4.24
-3.90
-4.58
-6.03
-7.72
-8.88
-8.64
-6.27
-1.51
5.34
13.47
21.76
29.17
35.01
39.09
41.64
43.07
43.76
43.86
43.38
42.19
40.24
37.64
34.66
31.62
28.76
26.12
23.50
20.56
17.00
12.82
8.42
4.55
1.99
1.20
2.11
4.09
6.25
7.86
8.54
8.44
7.98
7.55
7.38
7.35
7.24
6.82
6.06
5.16
4.46
4.28
4.79
6.00
7.67
9.55
11.39
13.07
14.56
15.83
16.84
17.52
17.76
17.55
16.98
16.14
15.08
13.67
11.66
8.74
4.82
0.14
-4.68
-8.81
-11.50
-12.37
-11.53
-9.45
-6.75
-3.86
-0.94
2.08
5.29
8.63
11.78
14.27
15.67
15.78
14.70
12.74
10.19
7.14
3.47
-1.02
-6.43
-12.60
-19.07
-25.29
-30.81
-35.45
-39.32
-42.63
-45.54
-47.97
-49.66
-50.25
-49.53
-47.44
-44.05
-39.47
-33.63
-26.40
-17.64
-7.49
3.48
14.27
23.71
30.89
35.53
38.13
39.84
41.95
45.46
50.74
57.42
64.67
71.54
77.21
81.19
83.22
83.24
81.22
77.22
71.45
64.34
56.57
48.85
41.82
35.77
30.61
25.92
21.10
15.61
9.16
1.75
-6.33
-14.55
-22.36
-29.29
-35.07
-39.71
-43.37
-46.25
-48.54
-50.29
-51.51
-52.17
-52.30
-51.97
-51.25
-50.16
-48.63
-46.49
-43.59
-39.88
-35.48
-30.65
-25.68
-20.82
-16.30
-12.31
-9.19
-7.29
-6.91
-7.99
-9.97
-11.88
-12.71
-11.87
-9.50
-6.30
-3.13
-0.52
1.57
3.60
5.97
8.72
11.48
13.71
15.14
15.98
16.77
18.13
20.29
22.96
25.48
27.11
27.45
26.57
25.01
23.53
22.84
23.40
25.27
28.20
31.63
34.88
37.37
38.75
39.03
38.61
37.98
37.53
37.25
36.71
35.26
32.33
27.66
21.38
13.93
5.79
-2.59
-10.85
-18.60
-25.37
-30.69
-34.24
-36.07
-36.64
-36.67
-36.84
-37.60
-38.92
-40.43
-41.63
-42.14
-41.91
-41.14
-40.22
-39.47
-38.94
-38.39
-37.34
-35.34
-32.14
-27.81
-22.74
-17.50
-12.57
-8.24
-4.59
-1.70
0.25
0.93
0.04
-2.40
-5.91
-9.53
-12.24
-13.31
-12.64
-10.66
-8.05
-5.31
-2.52
0.60
4.36
8.70
13.03
16.36
17.73
16.64
13.33
8.71
4.04
0.41
-1.61
-2.12
-1.66
-0.97
-0.56
-0.63
-0.96
-1.08
-0.44
1.48
5.05
10.37
17.21
25.07
33.19
40.80
47.27
52.25
55.78
58.13
59.66
60.59
60.91
60.39
58.71
55.65
51.23
45.71
39.53
33.17
27.09
21.66
17.13
13.58
10.88
8.63
6.32
3.51
0.03
-3.92
-7.77
-10.89
-12.83
-13.44
-12.94
-11.70
-10.12
-8.43
-6.74
-5.16
-3.87
-3.17
-3.37
-4.64
-6.80
-9.36
-11.61
-12.86
-12.75
-11.34
-9.11
-6.73
-4.80
-3.65
-3.24
-3.22
-3.05
-2.28
-0.68
1.67
4.34
6.75
8.39
8.99
8.59
7.49
5.97
4.11
1.71
-1.57
-5.91
-11.07
-16.31
-20.55
-22.75
-22.24
-18.93
-13.27
-6.19
1.03
7.04
10.75
11.84
11.07
10.21
11.32
15.71
23.10
31.56
38.31
41.12
39.40
34.41
28.36
23.11
19.07
15.12
9.51
1.16
-9.41
-20.20
-28.55
-32.49
-31.70
-27.60
-22.88
-20.57
-23.32
-32.86
-49.45
-71.23
-93.79
-110.51
-114.25
-99.99
-67.53
-22.51
24.98
63.83
85.88
88.41
74.27
49.68
21.39
-5.61
-28.61
-46.52
-58.85
-65.18
-65.32
-59.98
-51.07
-41.43
-33.95
-30.50
-31.35
-35.12
-39.49
-42.21
-41.96
-38.78
-33.83
-28.73
-24.76
-22.38
-21.18
-20.21
-18.56
-15.81
-12.20
-8.46
-5.43
-3.63
-3.05
-3.27
-3.62
-3.58
-2.91
-1.62
0.05
1.86
3.55
5.00
6.12
6.85
7.15
6.94
6.10
4.48
2.03
-1.14
-4.61
-7.79
-10.00
-10.78
-10.00
-7.88
-4.96
-1.83
0.96
3.01
4.07
4.07
3.03
1.12
-1.33
-3.91
-6.15
-7.70
-8.34
-8.08
-7.00
-5.32
-3.18
-0.77
1.77
4.30
6.64
8.67
10.25
11.30
11.76
11.60
10.86
9.67
8.29
7.01
6.11
5.72
5.86
6.34
6.93
7.41
7.58
7.40
6.96
6.43
5.95
5.52
5.02
4.23
3.00
1.39
-0.33
-1.75
-2.62
-2.95
-3.03
-3.31
-4.08
-5.33
-6.75
-7.83
-8.16
-7.60
-6.31
-4.65
-2.95
-1.46
-0.26
0.68
1.36
1.77
1.90
1.74
1.38
0.96
0.59
0.38
0.33
0.43
0.65
0.98
1.43
2.01
2.69
3.41
4.08
4.55
4.68
4.39
3.67
2.65
1.54
0.52
-0.27
-0.79
-1.15
-1.46
-1.86
-2.38
-3.00
-3.65
-4.21
-4.51
-4.40
-3.73
-2.43
-0.58
1.59
3.77
5.67
7.09
7.98
8.47
8.70
8.82
8.93
9.03
9.06
8.96
8.70
8.28
7.73
7.07
6.30
5.38
4.25
2.87
1.28
-0.36
-1.80
-2.81
-3.28
-3.29
-3.09
-2.98
-3.17
-3.71
-4.56
-5.61
-6.85
-8.31
-10.03
-11.90
-13.62
-14.75
-14.89
-13.89
-11.88
-9.27
-6.50
-3.90
-1.53
0.67
2.88
5.11
7.21
8.89
9.89
10.17
9.87
9.32
8.78
8.39
8.07
7.61
6.86
5.76
4.46
3.11
1.90
0.90
0.13
-0.44
-0.83
-1.09
-1.30
-1.61
-2.16
-3.07
-4.36
-5.96
-7.73
-9.47
-11.02
-12.18
-12.81
-12.80
-12.14
-10.87
-9.20
-7.32
-5.39
-3.52
-1.65
0.28
2.33
4.44
6.45
8.08
9.12
9.47
9.28
8.90
8.70
8.88
9.43
10.10
10.58
10.68
10.39
9.86
9.23
8.61
8.01
7.37
6.64
5.83
4.93
3.96
2.88
1.63
0.22
-1.35
-2.98
-4.63
-6.24
-7.82
-9.44
-11.18
-13.02
-14.84
-16.30
-17.04
-16.79
-15.51
-13.41
-10.90
-8.37
-5.99
-3.76
-1.55
0.72
2.96
4.97
6.55
7.63
8.29
8.72
9.09
9.51
9.94
10.31
10.49
10.41
10.05
9.48
8.82
8.22
7.80
7.59
7.52
7.40
7.00
6.22
5.07
3.63
2.08
0.55
-0.87
-2.13
-3.22
-4.17
-5.08
-6.13
-7.48
-9.25
-11.42
-13.81
-16.11
-17.93
-18.89
-18.69
-17.22
-14.59
-11.19
-7.54
-4.14
-1.29
1.01
3.01
4.97
7.00
8.98
10.65
11.76
12.26
12.28
12.01
11.62
11.18
10.70
10.19
9.71
9.33
9.14
9.15
9.28
9.38
9.36
9.13
8.69
8.08
7.30
6.32
5.09
3.61
1.92
0.22
-1.28
-2.38
-3.04
-3.39
-3.69
-4.25
-5.24
-6.67
-8.29
-9.75
-10.63
-10.60
-9.49
-7.33
-4.35
-0.94
2.47
5.54
8.07
10.11
11.78
13.21
14.42
15.31
15.75
15.69
15.27
14.79
14.57
14.76
15.31
15.96
16.38
16.38
15.98
15.35
14.69
14.11
13.58
12.93
12.01
10.75
9.21
7.58
6.04
4.71
3.61
2.59
1.45
-0.02
-1.91
-4.15
-6.51
-8.62
-10.12
-10.75
-10.37
-9.03
-6.95
-4.45
-1.84
0.64
2.85
4.76
6.34
7.60
8.50
9.08
9.42
9.64
9.87
10.13
10.39
10.55
10.54
10.34
10.00
9.59
9.19
8.79
8.38
7.94
7.47
6.98
6.47
5.94
5.35
4.67
3.90
3.02
1.98
0.72
-0.80
-2.54
-4.29
-5.76
-6.63
-6.68
-5.88
-4.32
-2.20
0.31
3.07
5.97
8.81
11.33
13.24
14.39
14.83
14.78
14.60
14.58
14.82
15.29
15.86
16.40
16.81
17.09
17.25
17.33
17.40
17.56
17.91
18.54
19.46
20.62
21.89
23.17
24.43
25.75
27.31
29.24
31.50
33.81
35.69
36.61
36.21
34.40
31.41
27.54
23.07
18.11
12.77
7.37
2.48
-1.17
-3.11
-3.46
-3.12
-3.42
-5.57
-10.10
-16.62
-23.97
-30.88
-36.54
-40.89
-44.54
-48.18
-52.17
-56.22
-59.56
-61.34
-61.10
-59.03
-55.86
-52.59
-50.17
-49.12
-49.46
-50.67
-51.86
-52.04
-50.51
-47.17
-42.65
-38.15
-35.01
-34.25
-36.12
-39.95
-44.12
-46.31
-44.09
-35.88
-21.90
-4.69
11.20
20.60
19.58
7.16
-14.11
-38.92
-61.10
-75.63
-80.03
-74.77
-62.59
-47.46
-33.27
-22.88
-17.39
-15.92
-16.01
-14.62
-9.40
0.35
13.35
27.01
38.56
46.27
50.02
50.98
50.77
50.49
50.42
50.19
49.34
47.80
45.94
44.28
43.00
41.89
40.48
38.57
36.46
35.01
35.21
37.72
42.61
49.57
58.42
69.51
83.64
101.50
