1478929024.00
64.000000
-0.00
-0.00
-0.00
-0.00
-0.00
-0.00
-0.00
-0.00
-0.00
-0.00
0.00
0.01
0.01
-0.00
-0.03
-0.05
-0.05
0.00
0.13
0.36
0.66
1.01
1.37
1.72
2.06
2.40
2.79
3.24
3.80
4.42
5.06
5.66
6.20
6.68
7.15
7.68
8.31
9.14
10.09
11.04
11.88
12.56
13.14
13.76
14.65
15.96
17.91
20.32
22.90
25.38
27.58
29.57
31.68
34.32
37.81
42.54
48.15
54.10
59.83
64.97
69.58
74.14
79.34
85.71
93.76
103.00
112.62
121.73
129.77
136.75
143.30
150.75
157.77
166.64
177.95
191.79
206.97
220.57
228.25
225.36
208.53
176.87
132.76
80.05
23.07
-34.94
-92.44
-149.16
-205.23
-260.37
-313.74
-363.87
-409.83
-450.91
-486.50
-515.74
-537.23
-549.22
-549.96
-538.37
-514.21
-478.67
-433.88
-382.45
-327.02
-269.84
-212.63
-156.66
-102.95
-52.38
-5.91
35.58
71.44
101.39
125.55
144.41
158.66
169.02
176.12
180.38
182.13
181.60
179.07
174.85
169.29
162.79
155.68
148.21
140.59
132.91
125.25
117.63
110.05
102.53
95.07
87.72
80.56
73.70
67.26
61.28
55.75
50.53
45.45
40.38
35.30
30.34
25.73
21.74
18.47
15.84
13.54
11.16
8.40
5.19
1.81
-1.26
-3.53
-4.75
-5.09
-5.09
-5.48
-6.79
-9.12
-12.05
-14.82
-16.68
-17.25
-16.73
-15.72
-15.04
-15.33
-16.99
-20.12
-24.51
-29.41
-33.29
-33.95
-29.21
-18.00
-1.30
17.74
34.87
46.40
50.76
48.88
43.40
37.19
31.99
28.10
24.90
21.80
18.83
16.55
15.53
15.74
16.46
16.61
15.32
12.45
8.58
4.82
2.18
1.23
1.81
3.17
4.38
4.65
3.75
1.91
-0.20
-1.91
-2.67
-2.28
-0.82
1.42
4.06
6.77
9.30
11.53
13.40
14.88
15.93
16.54
16.69
16.45
15.95
15.34
14.76
14.29
13.96
13.77
13.70
13.71
13.75
13.71
13.52
13.06
12.25
10.97
9.10
6.49
3.07
-1.16
-6.15
-11.63
-17.25
-22.58
-27.21
-30.77
-33.04
-33.86
-33.30
-31.59
-29.07
-26.14
-23.06
-19.90
-16.57
-12.92
-8.93
-4.84
-1.10
1.78
3.40
3.68
2.89
1.53
0.19
-0.67
-0.87
-0.49
0.14
0.59
0.52
-0.27
-1.76
-3.79
-6.11
-8.48
-10.65
-12.34
-13.35
-13.55
-13.08
-12.33
-11.79
-11.87
-12.70
-14.10
-15.69
-17.09
-18.11
-18.79
-19.26
-19.65
-19.98
-20.21
-20.29
-20.22
-20.02
-19.65
-19.04
-18.09
-16.71
-14.88
-12.56
-9.73
-6.30
-2.10
3.04
9.07
15.58
21.83
26.93
30.17
31.32
30.67
29.06
27.56
27.10
28.18
30.60
33.53
35.76
36.22
34.34
30.29
24.78
18.68
12.68
7.12
2.13
-2.12
-5.31
-7.00
-6.95
-5.37
-3.02
-0.97
-0.26
-1.66
-5.54
-11.95
-20.76
-31.57
-43.70
-56.06
-67.19
-75.56
-79.88
-79.51
-74.52
-65.67
-54.13
-41.20
-28.11
-15.84
-5.08
3.85
10.96
16.57
21.16
25.12
28.67
31.79
34.27
35.92
36.62
36.45
35.59
34.31
32.86
31.45
30.14
28.84
27.27
25.12
22.12
18.20
13.59
8.65
3.82
-0.63
-4.67
-8.49
-12.42
-16.79
-21.77
-27.33
-33.16
-38.71
-43.36
-46.49
-47.72
-46.96
-44.41
-40.44
-35.45
-29.79
-23.68
-17.26
-10.62
-3.82
3.04
9.90
16.65
23.13
29.15
34.50
38.96
42.43
44.88
46.34
46.87
46.56
45.49
43.81
41.70
39.36
36.93
34.44
31.81
28.90
25.65
22.11
18.46
14.90
11.58
8.55
5.76
3.06
0.26
-2.84
-6.39
-10.49
-15.02
-19.61
-23.59
-26.26
-26.99
-25.54
-22.15
-17.42
-12.13
-6.95
-2.29
1.75
5.27
8.38
11.11
13.40
15.13
16.25
16.85
17.11
17.22
17.30
17.32
17.19
16.78
16.08
15.14
14.07
12.99
11.90
10.76
9.51
8.07
6.44
4.65
2.77
0.84
-1.08
-2.92
-4.65
-6.24
-7.74
-9.27
-10.98
-13.06
-15.59
-18.57
-21.79
-24.90
-27.40
-28.78
-28.59
-26.63
-22.99
-18.07
-12.45
-6.77
-1.53
3.01
6.81
9.97
12.61
14.76
16.39
17.49
18.10
18.36
18.42
18.38
18.22
17.76
16.89
15.58
13.98
12.31
10.81
9.57
8.54
7.56
6.46
5.14
3.57
1.81
-0.06
-1.97
-3.88
-5.77
-7.65
-9.58
-11.59
-13.75
-16.11
-18.67
-21.39
-24.12
-26.57
-28.30
-28.88
-27.93
-25.31
-21.18
-15.94
-10.15
-4.36
0.96
5.55
9.28
12.17
14.32
15.84
16.87
17.50
17.75
17.66
17.29
16.70
16.01
15.27
14.50
13.64
12.64
11.50
10.33
9.22
8.22
7.29
6.29
5.05
3.43
1.44
-0.82
-3.21
-5.54
-7.72
-9.73
-11.69
-13.82
-16.35
-19.35
-22.65
-25.78
-28.14
-29.16
-28.53
-26.25
-22.63
-18.09
-13.09
-7.98
-3.11
1.23
4.80
7.47
9.25
10.29
10.76
10.80
10.44
9.69
8.50
6.92
5.03
2.94
0.73
-1.52
-3.80
-6.08
-8.33
-10.60
-12.99
-15.62
-18.59
-21.87
-25.27
-28.47
-31.11
-32.86
-33.55
-33.14
-31.71
-29.45
-26.63
-23.54
-20.44
-17.48
-14.56
-11.45
-7.79
-3.28
2.13
8.22
14.59
20.74
26.24
30.85
34.47
37.15
38.95
39.95
40.26
39.96
39.17
38.00
36.54
34.82
32.85
30.64
28.21
25.67
23.11
20.65
18.36
16.29
14.41
12.63
10.78
8.71
6.34
3.69
0.92
-1.75
-4.11
-6.11
-7.85
-9.57
-11.53
-13.88
-16.59
-19.43
-21.97
-23.75
-24.30
-23.31
-20.65
-16.45
-11.09
-5.11
0.88
6.35
10.94
14.55
17.20
19.04
20.21
20.80
20.89
20.54
19.87
18.98
18.02
17.05
16.11
15.14
14.08
12.85
11.41
9.76
7.92
5.92
3.79
1.60
-0.64
-2.88
-5.05
-7.13
-9.13
-11.13
-13.31
-15.84
-18.81
-22.08
-25.28
-27.87
-29.29
-29.10
-27.17
-23.66
-19.03
-13.86
-8.70
-3.99
0.12
3.66
6.78
9.62
12.19
14.37
16.01
17.03
17.48
17.53
17.33
16.98
16.48
15.84
15.11
14.38
13.76
13.23
12.65
11.84
10.65
9.08
7.28
5.42
3.61
1.84
-0.04
-2.18
-4.73
-7.73
-11.10
-14.66
-18.12
-21.09
-23.15
-23.88
-23.07
-20.66
-16.87
-12.12
-6.93
-1.78
2.96
7.11
10.63
13.52
15.80
17.44
18.43
18.82
18.76
18.46
18.13
17.84
17.51
16.99
16.15
14.99
13.66
12.38
11.29
10.39
9.48
8.34
6.80
4.84
2.61
0.32
-1.85
-3.84
-5.73
-7.67
-9.82
-12.29
-15.05
-17.98
-20.86
-23.31
-24.91
-25.21
-23.92
-20.98
-16.66
-11.49
-6.11
-1.03
3.49
7.47
11.12
14.62
18.02
21.19
23.86
25.83
27.05
27.63
27.80
27.73
27.53
27.20
26.76
26.26
25.79
25.44
25.21
24.96
24.45
23.47
21.92
19.82
17.32
14.56
11.65
8.59
5.32
1.74
-2.19
-6.44
-10.82
-14.96
-18.38
-20.59
-21.28
-20.45
-18.39
-15.62
-12.68
-9.96
-7.66
-5.76
-4.19
-2.86
-1.78
-1.00
-0.63
-0.73
-1.31
-2.32
-3.66
-5.20
-6.82
-8.39
-9.86
-11.25
-12.59
-13.96
-15.38
-16.89
-18.48
-20.12
-21.77
-23.38
-24.89
-26.23
-27.35
-28.28
-29.19
-30.30
-31.80
-33.69
-35.73
-37.42
-38.17
-37.52
-35.29
-31.61
-26.87
-21.51
-15.94
-10.42
-5.12
-0.16
4.33
8.22
11.41
13.81
15.44
16.39
16.84
16.97
16.92
16.74
16.40
15.79
14.88
13.71
12.46
11.33
10.45
9.78
9.09
8.09
6.59
4.59
2.28
-0.08
-2.30
-4.41
-6.59
-9.10
-12.17
-15.80
-19.76
-23.62
-26.77
-28.62
-28.70
-26.79
-23.02
-17.79
-11.70
-5.38
0.72
6.31
11.30
15.68
19.43
22.52
24.88
26.54
27.51
27.91
27.80
27.26
26.35
25.18
23.88
22.62
21.55
20.74
20.18
19.77
19.34
18.71
17.74
16.35
14.55
12.45
10.22
8.02
5.96
4.08
2.31
0.54
-1.38
-3.58
-6.05
-8.63
-10.93
-12.32
-12.09
-9.63
-4.70
2.54
11.52
21.52
31.90
42.27
52.49
62.50
72.14
81.00
88.47
93.84
96.48
95.88
91.67
83.53
71.22
54.84
34.98
12.85
-9.93
-31.70
-51.09
-67.25
-79.68
-88.04
-91.99
-91.37
-86.44
-78.21
-68.31
-58.70
-50.96
-45.80
-42.84
-40.66
-37.20
-30.28
-18.17
-0.26
22.57
47.81
71.77
90.51
100.85
101.28
92.26
75.89
55.06
32.66
10.84
-9.11
-26.67
-41.72
-54.27
-64.43
-72.41
-78.61
-83.52
-87.54
-90.67
-92.48
-92.19
-89.13
-83.14
-74.78
-65.25
-55.96
-48.03
-41.98
-37.68
-34.53
-31.85
-29.12
-26.14
-23.04
-20.14
-17.84
-16.32
-15.45
-14.77
-13.59
-11.31
-7.65
-2.76
2.80
8.35
13.34
17.52
20.97
23.96
26.86
29.98
33.43
37.10
40.64
43.57
45.45
46.05
45.48
44.13
42.47
40.78
39.04
36.95
34.14
30.45
26.04
21.34
16.86
12.92
9.45
6.06
2.13
-2.95
-9.49
-17.44
-26.28
-35.14
-42.94
-48.64
-51.39
-50.78
-46.87
-40.19
-31.69
-22.49
-13.61
-5.78
0.79
6.35
11.42
16.46
21.42
25.62
27.89
27.05
22.59
14.98
5.55
-4.03
-12.50
-19.39
-24.97
-29.57
-32.95
-34.01
-31.24
-23.67
-11.78
2.24
15.18
24.05
27.27
25.17
19.61
12.86
6.63
1.46
-2.97
-7.24
-11.49
-15.24
-17.67
-18.10
-16.36
-12.73
-7.66
-1.38
6.13
14.99
25.06
35.75
46.05
54.77
61.03
64.45
65.24
64.10
61.90
59.38
57.04
54.93
52.77
50.03
46.19
40.95
34.40
27.03
19.56
12.65
6.71
1.68
-2.83
-7.43
-12.62
-18.60
-25.31
-32.45
-39.69
-46.75
-53.32
-59.06
-63.46
-66.06
-66.53
-64.93
-61.76
-57.75
-53.68
-50.13
-47.27
-45.03
-43.14
-41.38
-39.63
-37.88
-36.11
-34.22
-32.06
-29.50
-26.60
-23.70
-21.33
-20.02
-20.02
-21.15
-22.78
-24.08
-24.38
-23.39
-21.35
-18.81
-16.39
-14.53
-13.47
-13.23
-13.80
-15.11
-17.01
-19.18
-21.10
-22.21
-22.07
-20.61
-18.09
-14.97
-11.70
-8.52
-5.42
-2.26
1.10
4.67
8.35
11.91
15.11
17.69
19.51
20.52
20.80
20.53
19.90
18.99
17.77
16.11
13.91
11.22
8.27
5.44
3.05
1.25
-0.10
-1.36
-2.97
-5.26
-8.35
-12.04
-15.87
-19.19
-21.36
-21.90
-20.61
-17.63
-13.37
-8.44
-3.47
1.04
4.81
7.78
10.13
12.12
13.97
15.80
17.56
19.06
20.15
20.68
20.70
20.29
19.63
18.79
17.78
16.58
15.18
13.64
12.04
10.46
8.90
7.27
5.48
3.45
1.20
-1.22
-3.80
-6.58
-9.69
-13.24
-17.15
-21.08
-24.47
-26.67
-27.16
-25.77
-22.68
-18.40
-13.63
-8.97
-4.82
-1.37
1.42
3.65
5.42
6.71
7.52
7.84
7.73
7.31
6.67
5.90
5.03
4.15
3.39
2.93
2.87
3.13
3.45
3.45
2.79
1.35
-0.75
-3.26
-5.94
-8.62
-11.22
-13.73
-16.08
-18.25
-20.31
-22.39
-24.60
-26.87
-28.80
-29.79
-29.25
-26.90
-22.97
-18.14
-13.27
-9.03
-5.70
-3.09
-0.76
1.73
4.60
7.77
10.99
13.98
16.65
19.11
21.62
24.47
27.76
31.41
35.13
38.59
41.50
43.69
45.09
45.65
45.34
44.15
42.15
39.49
36.40
33.08
29.65
26.07
22.26
18.15
13.88
9.87
6.83
5.57
6.76
10.63
16.84
24.61
32.96
41.05
48.43
55.04
61.00
66.34
70.87
74.12
75.71
75.48
73.74
71.13
68.35
65.86
63.67
61.41
58.50
54.58
49.58
43.88
38.07
32.80
28.48
25.28
23.09
21.63
20.55
19.58
18.56
17.44
16.16
14.58
12.44
9.51
5.75
1.49
-2.64
-5.94
-8.04
-9.16
-10.07
-11.77
-15.03
-20.06
-26.45
-33.45
-40.38
-46.92
-53.16
-59.38
-65.77
-72.19
-78.23
-83.33
-87.00
-88.89
-88.85
-86.86
-83.07
-77.86
-71.83
-65.71
-60.11
-55.27
-51.02
-46.99
-42.87
-38.68
-34.79
-31.63
-29.51
-28.36
-27.86
-27.57
-27.13
-26.32
-25.00
-23.05
-20.41
-17.15
-13.52
-9.94
-6.87
-4.64
-3.34
-2.86
-3.03
-3.72
-4.91
-6.55
-8.46
-10.29
-11.56
-11.87
-11.09
-9.36
-7.03
-4.47
-1.85
0.86
3.78
7.04
10.61
14.31
17.88
21.06
23.68
25.59
26.74
27.09
26.67
25.59
24.04
22.29
20.72
19.78
19.85
21.12
23.47
26.46
29.43
31.75
33.02
33.16
32.37
30.91
29.04
26.90
24.57
22.13
19.65
17.19
14.72
12.18
9.55
6.92
4.46
2.32
0.54
-1.04
-2.71
-4.73
-7.18
-9.98
-12.92
-15.79
-18.46
-20.81
-22.73
-23.98
-24.21
-23.07
-20.34
-16.04
-10.51
-4.29
2.03
7.88
12.83
16.62
19.08
20.21
20.11
18.99
17.23
15.21
13.29
11.66
10.30
9.06
7.72
6.13
4.29
2.31
0.33
-1.53
-3.27
-5.00
-6.92
-9.23
-12.07
-15.43
-19.13
-22.82
-26.04
-28.35
-29.46
-29.30
-28.09
-26.24
-24.19
-22.28
-20.65
-19.23
-17.83
-16.27
-14.48
-12.52
-10.59
-8.94
-7.78
-7.24
-7.28
-7.73
-8.39
-9.01
-9.46
-9.68
-9.73
-9.73
-9.80
-10.03
-10.49
-11.26
-12.51
-14.40
-17.11
-20.65
-24.75
-28.85
-32.16
-33.94
-33.70
-31.41
-27.47
-22.61
-17.57
-12.91
-8.94
-5.74
-3.28
-1.47
-0.25
0.48
0.83
0.91
0.84
0.71
0.57
0.50
0.54
0.70
0.86
0.84
0.48
-0.35
-1.61
-3.18
-4.96
-6.96
-9.31
-12.17
-15.59
-19.34
-22.92
-25.68
-27.00
-26.53
-24.26
-20.45
-15.57
-10.07
-4.36
1.22
6.46
11.20
15.35
18.92
22.00
24.73
27.26
29.69
32.06
34.37
36.56
38.54
40.19
41.33
41.84
41.71
41.09
40.34
39.87
39.99
40.75
41.92
43.09
43.85
44.07
43.93
43.92
44.70
46.89
50.90
56.85
64.45
72.98
81.27
87.91
91.55
91.23
86.66
78.18
66.55
52.68
37.47
21.76
6.40
-7.78
-20.07
-30.14
-38.10
-44.48
-49.87
-54.61
-58.61
-61.39
-62.38
-61.25
-58.13
-53.55
-48.30
-43.10
-38.45
-34.63
-31.67
-29.49
-27.94
-26.71
-25.38
-23.41
-20.29
-15.77
-9.93
-3.27
3.54
9.91
15.57
20.53
24.97
29.03
32.57
35.26
36.72
36.76
35.55
33.61
31.67
30.38
30.07
30.65
31.69
32.66
33.23
33.43
33.62
34.22
35.48
37.22
38.96
40.11
40.27
39.35
37.45
34.62
30.77
25.63
19.07
11.29
3.04
-4.66
-10.86
-15.07
-17.37
-18.26
-18.30
-17.80
-16.78
-15.18
-13.09
-10.90
-9.22
-8.47
-8.65
-9.25
-9.50
-8.85
-7.31
-5.58
-4.74
-5.70
-8.82
-13.63
-19.12
-24.16
-27.99
-30.49
-32.09
-33.48
-35.22
-37.59
-40.51
-43.76
-47.01
-49.94
-52.14
-53.08
-52.23
-49.29
-44.41
-38.26
-31.79
-25.95
-21.35
-18.11
-16.02
-14.73
-13.98
-13.61
-13.44
-13.27
-12.86
-12.06
-10.93
-9.70
-8.69
-8.16
-8.16
-8.62
-9.33
-10.08
-10.72
-11.17
-11.50
-11.81
-12.30
-13.08
-14.22
-15.62
-17.12
-18.54
-19.70
-20.48
-20.76
-20.41
-19.33
-17.47
-14.82
-11.40
-7.24
-2.35
3.10
8.78
14.13
18.55
21.59
23.20
23.69
23.63
23.54
23.70
23.98
24.00
23.30
21.59
18.76
14.98
10.51
5.65
0.65
-4.31
-9.11
-13.67
-18.00
-22.11
-25.96
-29.37
-31.97
-33.26
-32.81
-30.42
-26.29
-20.91
-14.91
-8.79
-2.87
2.76
8.04
12.86
16.96
20.06
22.01
22.89
23.02
22.82
22.64
22.63
22.69
22.56
22.01
20.93
19.41
17.67
15.93
14.28
12.65
10.87
8.75
6.19
3.17
-0.20
-3.72
-7.11
-10.01
-12.01
-12.79
-12.21
-10.37
-7.62
-4.41
-1.17
1.85
4.53
6.86
8.88
10.53
11.76
12.57
12.99
13.15
13.18
13.16
13.12
13.02
12.83
12.57
12.29
11.99
11.63
11.09
10.26
9.14
7.83
6.48
5.15
3.71
1.89
-0.55
-3.66
-7.19
-10.60
-13.38
-15.09
-15.53
-14.74
-12.88
-10.17
-6.84
-3.15
0.64
4.27
7.61
10.60
13.26
15.60
17.53
18.90
19.60
19.61
19.07
18.22
17.27
16.30
15.26
14.07
12.65
11.09
9.61
8.40
7.54
6.92
6.26
5.31
3.89
2.05
-0.03
-2.20
-4.39
-6.69
-9.24
-12.05
-14.93
-17.48
-19.28
-20.04
-19.72
-18.55
-16.85
-14.90
-12.79
-10.49
-7.87
-4.91
-1.75
1.32
3.95
5.88
7.09
7.73
8.05
8.23
8.27
7.99
7.14
5.53
3.12
0.06
-3.35
-6.79
-10.00
-12.74
-14.83
-16.18
-16.84
-17.00
-16.96
-17.09
-17.67
-18.85
-20.58
-22.57
-24.44
-25.75
-26.07
-25.18
-23.00
-19.69
-15.53
-10.86
-5.96
-1.01
3.89
8.69
13.30
17.58
21.36
24.51
26.99
28.82
30.08
30.87
31.27
31.33
31.05
30.47
29.61
28.52
27.19
25.62
23.78
21.65
19.22
16.56
13.76
10.95
8.20
5.53
2.86
0.05
-3.09
-6.71
-10.84
-15.30
-19.65
-23.22
-25.38
-25.72
-24.26
-21.41
-17.85
-14.19
-10.77
-7.57
-4.41
-1.07
2.41
5.81
8.78
11.04
12.49
13.20
13.37
13.13
12.63
11.93
11.10
10.24
9.45
8.76
8.09
7.27
6.13
4.58
2.68
0.63
-1.40
-3.30
-5.14
-7.16
-9.63
-12.68
-16.27
-20.07
-23.66
-26.53
-28.32
-28.79
-27.91
-25.79
-22.69
-18.90
-14.78
-10.62
-6.66
-3.08
0.02
2.56
4.47
5.73
6.39
6.60
6.61
6.66
6.91
7.38
7.95
8.42
8.57
8.27
7.48
6.28
4.79
3.13
1.42
-0.31
-2.11
-4.11
-6.54
-9.63
-13.51
-18.15
-23.22
-28.16
-32.26
-34.89
-35.68
-34.61
-31.96
-28.19
-23.70
-18.78
-13.51
-7.90
-2.01
3.92
9.54
14.40
18.10
20.40
21.29
20.95
19.73
18.01
16.14
14.40
12.95
11.81
10.96
10.28
9.62
8.83
7.79
6.41
4.65
2.49
-0.07
-3.05
-6.46
-10.25
-14.24
-18.07
-21.31
-23.48
-24.23
-23.45
-21.31
-18.12
-14.23
-9.87
-5.15
-0.09
5.24
10.66
15.82
20.35
23.94
26.44
27.94
28.61
28.67
28.30
27.52
26.34
24.74
22.82
20.75
18.74
16.89
15.16
13.35
11.18
8.42
4.94
0.74
-4.15
-9.63
-15.56
-21.65
-27.34
-31.84
-34.35
-34.26
-31.48
-26.54
-20.39
-14.12
-8.54
-3.89
0.07
3.91
8.08
12.65
17.24
21.24
24.10
25.56
25.73
24.98
23.76
22.42
21.17
20.11
19.27
18.60
18.00
17.26
16.09
14.22
11.51
8.02
4.04
-0.04
-3.82
-7.03
-9.64
-11.83
-13.89
-15.97
-17.99
-19.56
-20.17
-19.37
-17.03
-13.38
-8.97
-4.40
-0.12
3.70
7.13
10.38
13.60
16.77
19.69
22.11
23.82
24.83
25.29
25.48
25.62
25.78
25.82
25.50
24.55
22.79
20.25
17.13
13.69
10.26
7.07
4.25
1.77
-0.53
-2.88
-5.48
-8.50
-11.95
-15.75
-19.68
-23.39
-26.43
-28.34
-28.74
-27.49
-24.72
-20.79
-16.17
-11.31
-6.49
-1.89
2.42
6.31
9.64
12.25
14.06
15.11
15.56
15.65
15.58
15.45
15.17
14.57
13.51
11.96
10.08
8.10
6.19
4.36
2.49
0.44
-1.82
-4.17
-6.46
-8.60
-10.67
-12.82
-15.06
-17.17
-18.71
-19.22
-18.44
-16.46
-13.59
-10.21
-6.57
-2.75
1.24
5.36
9.49
13.39
16.87
19.74
21.91
23.30
23.93
23.86
23.22
22.11
20.58
18.54
15.86
12.44
8.38
4.01
-0.29
-4.22
-7.77
-11.15
-14.73
-18.78
-23.40
-28.51
-33.90
-39.35
-44.56
-49.12
-52.52
-54.25
-54.00
-51.83
-48.15
-43.55
-38.57
-33.43
-28.02
-22.06
-15.33
-7.93
-0.33
6.72
12.48
16.45
18.60
19.28
19.06
18.45
17.74
16.90
15.77
14.28
12.60
11.08
10.02
9.49
9.16
8.43
6.71
3.69
-0.56
-5.66
-11.05
-16.24
-20.85
-24.61
-27.28
-28.66
-28.58
-26.99
-23.95
-19.65
-14.32
-8.25
-1.79
4.65
10.57
15.48
18.99
20.96
21.47
20.87
19.62
18.23
17.10
16.45
16.33
16.62
17.03
17.26
17.02
16.13
14.54
12.30
9.50
6.17
2.25
-2.37
-7.78
-13.79
-19.93
-25.45
-29.47
-31.27
-30.46
-27.18
-21.94
-15.51
-8.62
-1.87
4.40
9.98
14.79
18.75
21.79
23.80
24.76
24.70
23.83
22.45
20.97
19.74
18.95
18.57
18.38
18.06
17.36
16.23
14.83
13.43
12.22
11.24
10.32
9.15
7.39
4.81
1.38
-2.71
-7.01
-10.92
-13.80
-15.12
-14.63
-12.43
-8.94
-4.70
-0.25
4.07
8.12
11.86
15.25
18.18
20.50
22.10
23.00
23.38
23.56
23.83
24.34
25.07
25.82
26.33
26.30
25.58
24.10
21.92
19.13
15.87
12.27
8.49
4.74
1.20
-1.99
-4.86
-7.55
-10.25
-13.03
-15.73
-17.98
-19.27
-19.21
-17.67
-14.80
-11.01
-6.80
-2.56
1.43
5.00
8.04
10.47
12.23
13.35
13.91
14.13
14.21
14.34
14.56
14.79
14.80
14.33
13.16
11.18
8.50
5.32
1.97
-1.36
-4.55
-7.70
-10.98
-14.62
-18.75
-23.42
-28.54
-33.99
-39.65
-45.42
-51.10
-56.46
-61.29
-65.53
-69.27
-72.64
-75.62
-77.97
-79.25
-79.06
-77.39
-74.80
-72.27
-70.76
-70.72
-71.85
-73.23
-73.69
-72.06
-67.61
-60.18
-50.14
-38.10
-24.66
-10.13
5.57
22.92
42.84
65.81
91.11
116.44
138.37
153.41
159.18
155.10
142.41
124.17
103.73
83.69
65.38
49.33
35.88
25.46
18.41
14.76
14.73
18.23
24.74
33.30
42.92
52.80
62.13
69.83
70.23
59.14
36.34
6.70
-22.84
-46.92
-63.10
-71.26
-72.79
-69.75
-63.47
-54.75
-43.99
-31.50
-17.72
-3.51
9.53
19.19
23.33
21.64
15.47
7.38
-0.14
-5.57
-8.67
-10.16
-11.06
-12.28
-13.58
-14.49
-14.83
-14.92
-15.25
-16.04
-16.90
-17.12
-16.29
-14.27
-11.85
-10.44
-11.41
-14.95
-20.67
-26.99
-32.06
-35.39
-35.95
-33.50
-28.47
-21.63
-13.96
-6.47
-0.08
4.51
6.81
7.06
5.80
3.81
1.86
0.36
-0.88
-2.61
-5.01
-8.45
-12.65
-16.70
-19.14
-18.50
-14.03
-6.10
3.87
13.95
22.25
27.71
30.00
29.26
25.79
19.86
11.77
2.10
-8.22
-18.18
-26.88
-33.95
-39.55
-44.16
-48.31
-52.27
-56.02
-59.28
-61.72
-62.82
-61.95
-58.50
-52.09
-42.93
-31.89
-20.48
-10.36
-2.92
1.18
2.13
0.75
-1.72
-3.99
-5.01
-4.18
-1.49
2.58
7.32
12.05
16.20
19.26
20.68
19.95
16.87
11.92
6.24
1.30
-1.83
-3.01
-3.03
-3.08
-3.92
-5.29
-6.05
-4.75
-0.44
6.95
16.70
27.63
38.58
48.59
56.86
62.70
65.53
64.95
60.89
53.70
44.14
33.36
22.71
13.46
6.50
2.00
-0.73
-2.99
-6.24
-11.49
-18.88
-27.62
-36.31
-43.48
-48.04
-49.52
-48.07
-44.26
-38.84
-32.49
-25.84
-19.41
-13.68
-9.15
-6.27
-5.29
-6.13
-8.28
-10.90
-13.09
-14.19
-14.07
-13.17
-12.28
-12.19
-13.32
-15.59
-18.44
-21.03
-22.53
-22.35
-20.25
-16.33
-10.95
-4.65
2.03
8.64
14.87
20.54
25.54
29.76
33.08
35.34
36.47
36.49
35.61
34.14
32.39
30.58
28.80
27.01
25.06
22.75
19.95
16.58
12.70
8.49
4.19
0.04
-3.89
-7.67
-11.57
-15.85
-20.70
-26.07
-31.64
-36.84
-40.95
-43.26
-43.26
-40.71
-35.78
-28.88
-20.65
-11.69
-2.58
6.27
14.58
22.09
28.58
33.80
37.51
39.54
39.88
38.73
36.52
33.77
30.97
28.44
26.26
24.34
22.56
20.84
19.22
17.71
16.30
14.85
13.14
10.93
8.10
4.60
0.48
-4.19
-9.31
-14.71
-20.08
-24.89
-28.50
-30.24
-29.62
-26.55
-21.33
-14.62
-7.24
0.03
6.64
12.33
17.06
20.92
24.03
26.48
28.34
29.69
30.66
31.40
31.99
32.32
32.10
30.98
28.67
25.18
20.81
16.07
11.46
7.27
3.60
0.34
-2.60
-5.22
-7.43
-9.16
-10.48
-11.64
-13.04
-15.11
-18.10
-21.97
-26.23
-30.00
-32.22
-31.98
-28.82
-22.97
-15.19
-6.57
1.92
9.60
16.25
21.88
26.54
30.19
32.67
33.84
33.70
32.47
30.55
28.40
26.35
24.54
22.94
21.40
19.85
18.25
16.64
15.00
13.25
11.23
8.87
6.20
3.42
0.78
-1.55
-3.60
-5.59
-7.80
-10.50
-13.80
-17.61
-21.63
-25.42
-28.38
-29.87
-29.30
-26.33
-21.03
-13.95
-6.03
1.66
8.27
13.37
17.02
19.63
21.69
23.54
25.30
26.90
28.21
29.18
29.87
30.37
30.74
30.98
31.02
30.80
30.34
29.63
28.66
27.30
25.39
22.91
20.08
17.45
15.75
15.60
17.16
19.96
22.95
24.82
24.50
21.58
16.59
10.85
6.17
4.17
5.74
10.67
17.68
24.89
30.45
33.23
33.12
31.01
28.26
26.17
25.38
25.74
26.43
26.35
24.51
20.43
14.22
6.52
-1.68
-9.28
-15.36
-19.38
-21.21
-21.20
-19.95
-18.21
-16.72
-15.99
-16.37
-17.88
-20.28
-23.09
-25.76
-27.79
-28.97
-29.39
-29.29
-28.87
-28.06
-26.46
-23.59
-19.24
-13.63
-7.46
-1.63
3.19
6.79
9.43
11.56
13.52
15.29
16.57
17.05
16.64
15.67
14.76
14.55
15.40
17.31
19.89
22.67
25.20
27.29
28.90
30.13
31.06
31.79
32.47
33.18
33.85
33.94
32.43
27.99
19.48
6.43
-10.58
-30.03
-49.87
-68.10
-83.20
-94.24
-100.80
-102.81
-100.51
-94.50
-85.78
-75.57
-65.03
-54.96
-45.65
-37.03
-28.86
-21.02
-13.55
-6.61
-0.35
5.13
9.78
13.59
16.50
18.46
19.39
19.26
18.01
15.60
12.01
7.33
1.82
-4.04
-9.72
-14.72
-18.77
-21.89
-24.29
-26.31
-28.28
-30.42
-32.87
-35.63
-38.64
-41.63
-44.13
-45.52
-45.12
-42.51
-37.67
-31.08
-23.57
-16.07
-9.26
-3.47
1.37
5.49
9.08
12.15
14.53
15.96
16.32
15.66
14.25
12.49
10.72
9.20
7.97
6.97
6.03
5.04
3.91
2.61
1.15
-0.46
-2.21
-4.13
-6.20
-8.36
-10.55
-12.71
-14.86
-17.07
-19.46
-22.04
-24.58
-26.59
-27.35
-26.15
-22.53
-16.47
-8.49
0.48
9.40
17.43
24.17
29.71
34.46
38.89
43.24
47.40
50.96
53.44
54.64
54.72
54.29
54.10
54.78
56.52
58.99
61.51
63.31
63.92
63.43
62.44
61.86
62.55
65.08
69.56
75.75
83.13
90.87
97.72
102.04
102.01
96.36
84.94
68.89
50.16
30.46
10.34
-10.93
-34.41
-60.10
-85.98
-108.34
-123.22
-128.25
-123.82
-112.83
-99.35
-86.71
-76.54
-68.77
-62.71
-58.09
-55.58
-56.46
-61.91
-72.30
-86.74
-103.18
-118.86
-131.01
-137.52
-137.31
-130.56
-118.70
-104.13
-89.33
-76.13
-65.56
-58.03
-53.59
-52.04
-52.73
-54.59
-56.62
-57.31
-55.03
-48.78
-38.78
-26.56
-14.18
-3.51
4.24
7.80
6.92
2.48
-4.06
-11.31
-18.21
-23.75
-27.04
-27.50
-26.29
-24.59
-22.98
-21.39
-19.63
-17.53
-14.62
-10.24
3.05
27.07
57.00
84.94
105.83
118.83
125.33
127.43
127.02
125.53
123.04
120.04
117.81
117.76
120.85
125.93
131.20
134.84
135.73
132.97
127.04
119.64
112.61
106.84
101.88
96.74
90.39
82.15
71.44
58.70
45.19
32.25
20.73
10.79
2.36
-4.58
-9.84
-13.36
-15.04
-15.00
-13.71
-12.08
-11.18
-11.57
-13.04
-14.63
-15.20
-13.96
-10.90
-6.85
-3.02
-0.45
0.59
0.56
0.30
0.49
1.37
2.62
3.59
3.62
2.12
-1.19
-6.33
-12.97
-20.50
-28.13
-35.17
-41.20
-46.09
-49.87
-52.51
-53.81
-53.37
-50.93
-46.48
-40.39
-33.31
-25.98
-19.35
-14.45
-12.41
-14.01
-19.23
-26.91
-35.01
-41.23
-43.90
-42.51
-37.71
-30.70
-22.57
-13.98
-5.20
3.42
11.20
17.21
20.70
21.52
20.30
18.10
16.01
14.70
14.22
14.15
13.89
12.95
11.22
8.91
6.50
4.46
3.02
2.06
1.21
0.02
-1.70
-3.85
-6.08
-8.00
-9.42
-10.44
-11.37
-12.50
-13.93
-15.58
-17.20
-18.62
-19.73
-20.49
-20.75
-20.28
-18.70
-15.80
-11.57
-6.34
-0.70
4.75
9.50
13.26
15.89
17.36
17.65
16.82
14.98
12.39
9.36
6.21
3.14
0.25
-2.49
-5.10
-7.57
-9.85
-11.92
-13.87
-15.90
-18.28
-21.18
-24.63
-28.44
-32.26
-35.72
-38.51
-40.54
-41.93
-43.00
-44.18
-45.82
-48.06
-50.70
-53.18
-54.67
-54.32
-51.51
-46.13
-38.56
-29.65
-20.36
-11.54
-3.74
2.76
7.91
11.73
14.32
15.83
16.52
16.70
16.65
16.53
16.32
15.91
15.20
14.22
13.05
11.83
10.61
9.33
7.88
6.11
3.95
1.41
-1.35
-4.08
-6.50
-8.36
-9.60
-10.35
-10.98
-12.02
-13.90
-16.81
-20.51
-24.33
-27.35
-28.67
-27.74
-24.43
-19.11
-12.51
-5.45
1.26
7.05
11.59
14.79
16.76
17.77
18.13
18.10
17.90
17.63
17.30
16.88
16.33
15.64
14.82
13.90
12.88
11.74
10.45
8.91
7.02
4.75
2.18
-0.49
-3.01
-5.19
-6.98
-8.55
-10.15
-12.06
-14.43
-17.23
-20.28
-23.26
-25.72
-27.16
-27.07
-25.03
-20.91
-15.01
-8.07
-1.02
5.24
10.19
13.74
16.15
17.78
18.91
19.63
19.88
19.66
19.02
18.10
17.08
16.05
15.00
13.83
12.42
10.72
8.77
6.70
4.69
2.82
1.02
-0.90
-3.16
-5.89
-9.00
-12.32
-15.63
-18.87
-22.15
-25.63
-29.27
-32.73
-35.31
-36.25
-34.98
-31.39
-25.95
-19.46
-12.86
-6.87
-1.87
2.07
5.08
7.34
9.02
10.27
11.33
12.48
13.99
15.97
18.37
20.87
23.07
24.60
25.26
25.02
23.99
22.26
19.87
16.79
13.00
8.56
3.66
-1.44
-6.51
-11.36
-15.99
-20.49
-25.01
-29.62
-34.08
-37.85
-40.07
-39.90
-36.84
-30.99
-23.02
-14.05
-5.24
2.59
9.02
14.05
17.81
20.49
22.31
23.68
25.26
27.72
31.37
35.77
39.76
41.82
40.77
36.40
29.50
21.57
14.04
7.82
3.03
-0.64
-3.58
-6.15
-8.39
-10.20
-11.59
-12.91
-14.62
-17.08
-20.36
-24.24
-28.55
-32.95
-36.90
-39.82
-41.19
-40.73
-38.30
-33.94
-27.88
-20.99
-14.05
-7.60
-2.03
2.08
4.14
3.91
1.66
-1.91
-7.24
-14.18
-21.62
-28.25
-33.64
-38.21
-42.54
-46.90
-51.13
-57.37
-66.22
-75.65
-82.75
-86.17
-86.37
-84.67
-82.26
-79.78
-81.27
-87.71
-95.28
-98.40
-94.16
-83.71
-71.05
-61.47
-59.89
-74.78
-108.91
-156.56
-207.57
-253.39
-289.08
-312.39
-322.86
-286.38
-195.70
-77.95
29.21
106.41
153.55
178.54
190.12
195.22
199.46
200.52
196.98
191.53
187.91
186.45
184.48
179.28
170.53
155.97
133.73
105.59
76.97
53.50
37.32
27.43
21.88
19.19
18.47
17.02
13.33
8.82
6.50
8.60
16.01
28.61
45.44
64.86
84.14
101.30
116.18
129.23
139.84
145.96
145.02
135.06
115.67
88.20
55.66
22.44
-7.57
-32.24
-51.19
-64.73
-73.16
-76.58
-75.01
-68.93
-58.27
-44.12
-29.09
-16.55
-9.03
-7.41
-11.05
-18.27
-26.96
-32.80
-33.29
-29.40
-24.57
-21.82
-22.00
-24.03
-25.71
-24.66
-15.24
5.28
34.45
66.34
95.91
121.22
142.67
161.80
180.24
204.48
238.31
279.98
323.57
363.39
395.92
418.64
429.56
395.15
303.15
173.88
45.97
-54.02
-120.82
-161.57
-186.58
-203.91
-217.72
-224.00
-219.66
-206.90
-192.58
-183.99
-183.98
-192.82
-209.31
-231.48
-252.76
-267.48
-272.74
-268.28
-254.48
-231.93
-202.85
-170.95
-139.93
-108.74
-78.41
-50.50
-26.63
-7.45
7.40
18.40
26.00
30.82
34.99
39.95
45.94
51.72
55.71
56.82
54.76
50.07
43.82
37.67
32.68
29.28
27.04
25.12
22.83
19.78
15.96
11.65
7.21
2.77
-1.55
-5.84
-10.28
-14.95
-19.57
-23.51
-25.95
-26.15
-23.87
-19.33
-13.19
-6.35
0.46
6.89
13.00
19.09
25.47
32.23
39.26
46.16
52.49
57.79
61.84
64.66
66.43
67.42
67.74
67.39
66.18
63.91
60.47
55.87
50.22
43.66
36.32
28.40
20.06
11.52
2.88
-5.81
-14.47
-22.83
-30.24
-35.79
-38.51
-37.75
-33.48
-26.23
-16.98
-6.79
3.48
13.23
22.10
29.84
36.17
40.84
43.60
44.39
43.37
40.93
37.64
34.13
30.88
28.16
25.93
23.97
21.93
19.53
16.60
13.11
9.18
4.97
0.66
-3.58
-7.60
-11.29
-14.58
-17.55
-20.36
-23.22
-26.24
-29.31
-31.97
-33.55
-33.33
-30.80
-25.88
-18.87
-10.37
-1.05
8.43
17.52
25.70
32.52
37.64
40.93
42.49
42.65
41.88
40.61
39.15
37.60
35.92
33.96
31.50
28.35
24.34
19.43
13.70
7.50
1.31
-4.27
-8.83
-12.25
-14.88
-17.31
-20.20
-23.91
-28.35
-33.00
-37.08
-39.78
-40.35
-38.26
-33.21
-25.21
-14.70
-2.50
10.29
22.60
33.69
43.26
51.43
58.42
64.26
68.61
70.85
70.35
66.77
60.25
51.44
41.25
30.61
20.19
10.37
1.32
-6.87
-14.04
-20.05
-24.80
-28.38
-31.05
-33.18
-35.10
-37.02
-39.02
-41.08
-43.19
-45.41
-47.76
-50.15
-52.26
-53.51
-53.11
-50.33
-44.75
-36.54
-26.40
-15.44
-4.73
5.01
13.55
21.10
28.04
34.61
40.77
46.18
50.50
53.53
55.36
56.37
57.03
57.73
58.69
59.91
61.27
62.60
63.70
64.34
64.23
62.97
60.16
55.45
48.64
39.75
28.94
16.40
2.41
-12.76
-28.70
-44.86
-60.55
-75.04
-87.66
-97.93
-105.58
-110.48
-112.68
-112.35
-109.89
-105.89
-101.02
-95.90
-90.96
-86.29
-81.74
-77.02
-71.87
-66.20
-60.15
-54.01
-48.17
-42.93
-38.44
-34.67
-31.46
-28.68
-26.30
-24.38
-23.06
-22.36
-22.18
-22.32
-22.59
-22.91
-23.36
-24.09
-25.25
-26.87
-28.81
-30.79
-32.35
-32.99
-32.19
-29.63
-25.22
-19.18
-11.95
-4.08
3.93
11.66
18.77
24.97
30.01
33.69
35.95
36.83
36.55
35.36
33.56
31.44
29.22
27.07
25.05
23.08
21.01
18.72
16.14
13.36
10.55
7.91
5.54
3.38
1.26
-1.02
-3.56
-6.32
-9.21
-12.18
-15.30
-18.82
-22.89
-27.39
-31.76
-35.05
-36.29
-34.81
-30.61
-24.38
-17.17
-9.99
-3.50
2.18
7.24
11.93
16.36
20.40
23.89
26.72
29.01
31.01
32.94
34.92
36.85
38.53
39.70
40.17
39.87
38.85
37.26
35.32
33.26
31.26
29.45
27.80
26.23
24.53
22.48
19.81
16.33
11.94
6.77
1.22
-4.02
-8.15
-10.44
-10.50
-8.37
-4.49
0.42
5.62
10.50
14.66
17.86
20.00
21.06
21.09
20.21
18.69
16.86
15.11
13.75
12.92
12.57
12.49
12.37
11.98
11.22
10.13
8.83
7.48
6.17
4.89
3.56
2.06
0.27
-1.90
-4.49
-7.40
-10.43
-13.24
-15.36
-16.33
-15.75
-13.46
-9.58
-4.51
1.13
6.66
11.49
15.23
17.67
18.78
18.63
17.38
15.22
12.46
9.52
6.82
4.69
3.22
2.20
1.23
-0.13
-2.13
-4.70
-7.55
-10.30
-12.69
-14.76
-16.77
-19.16
-22.27
-26.24
-30.86
-35.60
-39.66
-42.14
-42.31
-39.81
-34.82
-27.98
-20.22
-12.46
-5.34
0.85
6.12
10.58
14.29
17.22
19.26
20.32
20.41
19.65
18.23
16.34
14.17
11.87
9.56
7.35
5.34
3.63
2.30
1.33
0.68
0.17
-0.44
-1.42
-3.01
-5.33
-8.34
-11.77
-15.13
-17.74
-18.94
-18.20
-15.37
-10.69
-4.74
1.80
8.34
14.57
20.42
25.93
31.11
35.82
39.76
42.65
44.30
44.71
44.05
42.60
40.64
38.34
35.79
32.98
29.92
26.68
23.37
20.16
17.21
14.53
12.06
9.59
6.91
3.79
0.08
-4.24
-9.05
-14.03
-18.65
-22.26
-24.21
-24.00
-21.41
-16.61
-10.10
-2.60
5.08
12.20
18.25
23.01
26.58
29.17
31.01
32.16
32.49
31.79
29.94
27.06
23.56
19.97
16.77
14.18
12.14
10.41
8.73
6.93
5.04
3.13
1.29
-0.48
-2.27
-4.18
-6.30
-8.69
-11.37
-14.34
-17.55
-20.81
-23.72
-25.69
-26.06
-24.30
-20.22
-14.07
-6.52
1.56
9.32
16.11
21.60
25.74
28.66
30.52
31.47
31.59
30.89
29.45
27.35
24.75
21.84
18.78
15.69
12.64
9.64
6.66
3.68
0.70
-2.24
-5.13
-7.95
-10.77
-13.67
-16.75
-20.06
-23.58
-27.25
-31.03
-34.87
-38.73
-42.51
-45.92
-48.54
-49.83
-49.31
-46.71
-42.07
-35.74
-28.22
-20.08
-11.81
-3.79
3.75
10.67
16.85
22.19
26.60
29.99
32.28
33.53
33.82
33.34
32.31
30.89
29.17
27.16
24.90
22.43
19.83
17.15
14.33
11.20
7.50
3.07
-2.11
-7.80
-13.64
-19.26
-24.43
-29.13
-33.58
-38.06
-42.82
-47.84
-52.84
-57.23
-60.31
-61.45
-60.26
-56.77
-51.38
-44.71
-37.43
-30.15
-23.34
-17.36
-12.53
-9.12
-7.32
-7.04
-7.80
-8.78
-8.97
-7.45
-3.75
2.00
9.14
16.72
23.84
30.02
35.16
39.39
42.75
45.04
45.79
44.53
41.12
35.92
29.66
23.18
17.08
11.48
6.10
0.57
-5.33
-11.48
-17.43
-22.49
-25.99
-27.35
-26.30
-22.90
-17.57
-11.04
-4.21
2.07
7.16
10.86
13.41
15.38
17.46
20.11
23.41
27.01
30.33
32.77
33.97
33.83
32.43
29.78
25.79
20.24
13.08
4.58
-4.55
-13.34
-20.85
-26.46
-30.02
-31.78
-32.23
-31.89
-31.13
-30.10
-28.79
-27.06
-24.92
-22.53
-20.20
-18.28
-16.84
-15.51
-13.52
-10.01
-4.50
2.77
10.76
17.99
23.15
25.62
25.68
24.27
22.51
21.21
20.63
20.56
20.62
20.54
20.31
20.11
20.10
20.33
20.60
20.62
20.14
19.08
17.55
15.81
14.12
12.71
11.65
10.84
9.98
8.62
6.27
2.57
-2.55
-8.73
-15.25
-21.14
-25.45
-27.51
-27.04
-24.24
-19.67
-14.07
-8.17
-2.57
2.34
6.35
9.34
11.24
12.04
11.85
10.90
9.57
8.25
7.26
6.70
6.45
6.27
5.92
5.33
4.62
4.02
3.72
3.75
3.91
3.87
3.29
1.99
-0.10
-3.00
-6.68
-11.06
-15.79
-20.31
-23.95
-26.15
-26.66
-25.57
-23.31
-20.37
-17.13
-13.67
-9.95
-6.04
-2.14
1.52
4.65
6.98
8.24
8.19
6.81
4.27
0.89
-2.85
-5.99
-7.76
-7.97
-7.08
-6.09
-5.54
-5.72
-6.67
-8.20
-9.35
-9.43
-8.53
-7.52
-7.81
-9.71
-13.01
-17.44
-22.59
-27.08
-29.78
-30.51
-29.96
-29.47
-28.57
-26.36
-22.16
-15.38
-4.37
11.98
33.28
57.55
81.37
103.29
122.43
138.13
140.98
125.45
94.31
57.50
30.12
11.76
-0.15
-7.67
-13.81
-19.71
-24.58
-27.68
-29.37
-31.09
-35.17
-41.43
-48.89
-56.48
-63.10
-67.00
-67.03
-63.36
-57.36
-51.32
-45.76
-40.70
-36.12
-31.86
-27.22
-21.68
-15.38
-9.17
-4.46
-1.54
-0.23
-0.09
-0.38
-0.01
1.82
5.28
9.79
14.17
17.60
19.45
19.37
17.39
13.99
9.88
5.76
2.11
-1.01
-3.66
-6.15
-8.86
-12.00
-15.39
-18.49
-20.55
-20.86
-19.03
-15.12
-9.62
-3.21
3.38
9.57
14.95
19.20
22.14
23.62
23.68
22.52
20.49
18.02
15.45
12.99
10.69
8.58
6.68
5.03
3.65
2.47
1.33
0.00
-1.61
-3.52
-5.56
-7.63
-9.69
-11.92
-14.57
-17.79
-21.51
-25.31
-28.63
-30.83
-31.46
-30.34
-27.58
-23.47
-18.47
-13.04
-7.65
-2.67
1.63
5.08
7.64
9.38
10.38
10.82
10.85
10.61
10.20
9.65
8.91
7.90
6.57
4.96
3.19
1.43
-0.19
-1.63
-3.00
-4.49
-6.28
-8.43
-10.81
-13.03
-14.56
-14.86
-13.51
-10.36
-5.53
0.53
7.16
13.64
19.31
23.70
26.64
28.20
28.61
28.22
27.33
26.21
25.10
24.13
23.40
22.87
22.42
21.89
21.09
19.94
18.44
16.62
14.55
12.23
9.60
6.56
3.05
-0.94
-5.33
-9.94
-14.43
-18.34
-21.08
-22.09
-20.99
-17.70
-12.61
-6.45
-0.20
5.20
9.08
11.18
11.69
11.14
10.22
9.53
9.43
9.91
10.64
11.08
10.65
8.92
5.68
1.00
-4.78
-11.15
-17.45
-23.06
-27.53
-30.68
-32.72
-34.13
-35.53
-37.36
-39.68
-42.05
-43.67
-43.66
-41.51
-37.23
-31.40
-24.86
-18.44
-12.63
-7.53
-3.04
0.96
4.46
7.28
9.25
10.31
10.58
10.34
9.88
9.48
9.31
9.45
9.86
10.37
10.63
10.07
8.12
4.41
-1.06
-7.73
-14.63
-20.71
-25.21
-27.90
-29.14
-29.64
-30.07
-30.75
-31.54
-31.96
-31.44
-29.62
-26.49
-22.35
-17.68
-12.96
-8.51
-4.44
-0.76
2.51
5.27
7.39
8.77
9.44
9.63
9.68
9.92
10.49
11.37
12.36
13.23
13.84
14.13
14.13
13.92
13.51
12.91
12.05
10.84
9.20
7.06
4.41
1.30
-2.08
-5.46
-8.44
-10.57
-11.47
-10.89
-8.86
-5.62
-1.60
2.73
6.98
10.93
14.47
17.57
20.12
21.94
22.84
22.72
21.67
20.02
18.26
16.77
15.74
15.15
14.79
14.39
13.74
12.76
11.49
10.05
8.50
6.93
5.38
3.94
2.60
1.30
-0.16
-1.91
-4.01
-6.41
-8.83
-10.78
-11.66
-10.97
-8.55
-4.62
0.39
5.89
11.13
15.52
18.82
21.21
23.03
24.52
25.75
26.75
27.60
27.87
27.18
25.49
23.29
21.18
19.45
18.04
16.76
15.38
13.05
9.12
3.81
-1.66
-5.60
-6.98
-5.59
-1.96
2.80
6.27
6.03
0.62
-10.02
-24.96
-43.33
-64.33
-87.02
-103.34
-106.16
-93.79
-71.64
-47.39
-25.86
-8.64
4.84
15.95
25.69
33.62
38.78
40.62
37.99
32.09
23.80
13.84
3.32
-6.31
-13.58
-17.08
-15.85
-10.38
-2.25
5.77
10.87
13.95
15.11
14.97
14.70
15.39
16.70
17.64
16.73
12.87
5.73
-4.41
-16.16
-27.58
-36.64
-43.06
-47.20
-49.82
-51.72
-53.49
-55.75
-58.61
-62.02
-58.50
-43.89
-18.62
13.25
47.14
79.40
106.20
124.01
130.57
126.47
114.31
98.82
85.14
76.19
72.14
69.99
67.73
64.30
60.07
55.71
52.59
52.36
55.58
61.66
68.58
73.81
75.09
71.30
62.06
47.63
32.52
19.23
8.67
0.05
-8.63
-20.00
-36.43
-59.44
-88.32
-119.24
-145.94
-160.09
-153.60
-121.37
-63.72
12.80
96.56
174.09
233.93
268.96
278.06
264.88
235.46
195.65
149.68
100.31
49.96
1.93
-39.78
-71.03
-89.30
-94.89
-90.93
-82.10
-72.85
-65.92
-61.98
-60.40
-60.38
-62.11
-66.93
-76.71
-92.65
-114.35
-139.69
-165.58
-189.26
-209.27
-225.90
-240.46
-254.26
-267.68
-279.78
-288.81
-293.06
-291.66
-284.87
-273.87
-260.28
-245.60
-231.00
-217.20
-204.63
-193.58
-184.16
-176.12
-168.73
-160.70
-150.55
-137.29
-120.92
-102.70
-84.75
-69.23
-57.34
-48.60
-40.90
-31.21
-16.86
3.10
27.18
51.72
72.08
84.05
85.34
76.31
59.73
40.08
22.39
11.15
9.28
17.02
31.37
46.42
55.09
51.76
34.87
7.98
-21.43
-44.85
-55.89
-52.10
-34.59
-5.92
32.29
80.30
138.99
207.29
279.81
346.66
395.91
417.64
407.66
369.00
310.74
244.58
181.26
128.30
89.72
67.08
60.68
70.12
93.82
128.28
167.73
204.89
232.65
246.21
244.58
231.05
211.96
194.10
181.98
176.06
172.83
166.79
153.37
131.29
103.07
73.65
48.04
29.18
17.26
10.40
6.09
2.41
-1.41
-5.34
-9.15
-13.01
-17.52
-23.31
-30.58
-38.69
-46.29
-51.80
-53.99
-52.54
-48.06
-41.76
-35.02
-28.92
-24.08
-20.83
-19.36
-19.96
-22.92
-28.46
-36.40
-46.14
-56.70
-66.84
-75.47
-81.89
-86.04
-88.47
-90.09
-91.74
-93.67
-95.35
-95.50
-92.66
-85.84
-75.04
-61.44
-46.94
-33.56
-22.71
-14.80
-9.40
-5.58
-2.50
0.24
2.55
4.00
4.22
3.03
0.60
-2.65
-6.20
-9.49
-12.07
-13.62
-14.04
-13.45
-12.20
-10.71
-9.39
-8.56
-8.37
-8.84
-10.02
-11.99
-14.96
-19.18
-24.91
-32.20
-40.83
-50.20
-59.35
-67.19
-72.74
-75.42
-75.21
-72.50
-67.90
-61.94
-54.92
-46.83
-37.41
-26.22
-12.84
2.88
20.41
38.38
54.57
66.41
71.76
69.66
60.79
47.30
32.06
17.83
6.47
-1.31
-5.79
-7.77
-8.21
-7.92
-7.54
-7.51
-8.21
-9.88
-12.71
-16.73
-21.77
-27.41
-32.86
-37.11
-39.06
-37.93
-33.45
-26.08
-16.93
-7.33
1.50
8.84
14.52
18.78
21.94
24.24
25.69
26.26
25.93
24.81
23.03
20.64
17.58
13.71
8.96
3.51
-2.20
-7.58
-11.99
-14.96
-16.30
-16.07
-14.69
-12.75
-10.92
-9.69
-9.26
-9.54
-10.24
-11.08
-11.82
-12.24
-12.05
-10.78
-7.95
-3.33
2.81
9.65
16.13
21.38
25.14
27.76
30.07
32.87
36.61
41.20
46.14
50.78
54.61
57.39
59.14
60.06
60.32
60.00
59.09
57.54
55.34
52.48
49.00
44.89
40.05
34.36
27.70
20.08
11.57
2.39
-7.25
-17.06
-26.62
-35.28
-42.19
-46.47
-47.50
-45.24
-40.31
-33.82
-27.00
-20.77
-15.55
-11.29
-7.72
-4.70
-2.31
-0.81
-0.40
-1.04
-2.37
-3.87
-5.11
-5.96
-6.74
-8.08
-10.60
-14.65
-20.04
-26.06
-31.75
-36.22
-38.93
-39.88
-39.58
-38.83
-38.55
-39.50
-42.07
-46.14
-50.93
-55.13
-57.23
-55.98
-50.82
-42.09
-30.89
-18.67
-6.75
4.01
13.26
20.98
27.19
31.90
35.04
36.69
37.08
36.69
36.01
35.41
34.96
34.39
33.25
31.08
27.61
22.96
17.53
12.01
7.01
2.93
-0.25
-2.93
-5.83
-9.70
-15.19
-22.60
-31.72
-41.69
-51.11
-58.25
-61.47
-59.70
-52.78
-41.54
-27.47
-12.37
2.20
15.16
25.94
34.38
40.42
44.10
45.42
44.54
41.81
37.88
33.54
29.58
26.52
24.44
23.00
21.61
19.78
17.28
14.27
11.14
8.29
5.87
3.74
1.51
-1.30
-5.11
-10.24
-16.86
-24.86
-33.80
-42.71
-50.23
-54.79
-55.17
-50.87
-42.37
-30.97
-18.44
-6.39
4.03
12.30
18.42
22.60
25.05
25.85
25.02
22.58
18.71
13.79
8.37
3.11
-1.41
-4.83
-7.12
-8.56
-9.65
-10.91
-12.79
-15.54
-19.25
-23.89
-29.37
-35.63
-42.68
-50.66
-59.78
-70.24
-81.99
-94.56
-106.83
-117.13
-123.51
-124.13
-117.78
-104.22
-84.35
-60.06
-33.89
-8.51
13.73
31.20
43.16
49.75
51.73
50.26
46.62
42.09
37.82
34.67
33.02
32.74
33.15
33.31
32.33
29.80
25.94
21.63
17.87
15.37
14.14
13.59
12.68
10.41
6.12
-0.33
-8.31
-16.86
-24.85
-31.04
-34.23
-33.44
-28.34
-19.38
-7.82
5.15
18.13
29.98
40.00
48.10
54.58
59.77
63.88
66.87
69.43
71.94
74.39
76.55
78.23
79.22
79.33
78.18
75.24
70.91
65.15
57.49
47.44
35.37
22.66
11.83
5.46
-0.61
-7.86
-16.19
-24.91
-34.07
-43.70
-53.42
-62.02
-68.82
-73.84
-76.61
-77.11
-74.55
-69.21
-60.99
-49.98
-36.44
-21.97
-9.10
0.35
5.13
5.29
2.29
-0.79
-4.74
-8.24
-10.72
-12.47
-13.73
-14.69
-15.20
-14.98
-13.69
-11.52
-8.68
-6.04
-4.47
-4.15
-4.76
-5.78
-6.91
-8.13
-9.86
-12.16
-15.21
-18.92
-22.78
-26.13
-28.55
-30.12
-31.37
-33.16
-36.06
-40.35
-45.73
-51.20
-55.26
-56.40
-53.60
-46.73
-36.61
-24.52
-11.90
0.10
10.91
20.41
28.68
35.71
41.37
45.49
48.05
49.23
49.34
48.75
47.74
46.51
45.12
43.61
41.98
40.26
38.48
36.69
34.99
33.47
32.14
30.85
29.26
26.94
23.59
19.20
14.17
9.27
5.26
2.71
1.63
1.58
1.68
0.92
-1.54
-6.25
-13.21
-21.77
-30.62
-38.00
-42.00
-41.23
-35.21
-24.61
-11.08
3.26
16.49
27.34
35.39
40.91
44.47
46.65
47.85
48.27
48.02
47.20
45.93
44.32
42.46
40.33
37.88
35.05
31.88
28.54
25.29
22.38
19.92
17.79
15.71
13.31
10.32
6.69
2.67
-1.34
-4.94
-7.93
-10.39
-12.68
-15.27
-18.57
-22.82
-27.99
-33.71
-39.27
-43.65
-45.74
-44.65
-39.99
-32.10
-21.99
-11.03
-0.52
8.69
16.28
22.37
27.21
30.96
33.56
34.85
34.77
33.47
31.36
28.94
26.68
24.85
23.48
22.39
21.30
19.95
18.16
15.90
13.24
10.30
7.20
4.04
0.92
-2.06
-4.86
-7.52
-10.22
-13.32
-17.19
-22.07
-27.73
-33.44
-38.02
-40.16
-38.86
-33.84
-25.63
-15.43
-4.68
5.33
13.71
20.09
24.45
27.01
28.05
27.82
26.58
24.60
22.20
19.71
17.44
15.62
14.27
13.20
12.09
10.63
8.59
5.99
3.05
0.11
-2.55
-4.79
-6.67
-8.45
-10.47
-13.09
-16.61
-21.10
-26.32
-31.67
-36.24
-38.82
-38.44
-34.61
-27.57
-18.21
-7.80
2.27
10.93
17.58
22.33
25.59
27.78
29.10
29.54
29.02
27.57
25.37
22.81
20.58
19.14
18.46
18.11
17.57
16.50
14.75
12.39
9.59
7.36
6.40
6.65
7.39
7.83
7.37
5.59
2.26
-2.57
-6.79
-8.42
-6.65
-1.79
5.55
14.80
25.21
35.79
45.49
56.21
69.30
84.27
99.09
111.87
121.73
128.58
132.68
134.39
137.62
145.04
156.43
169.36
181.69
192.63
202.23
210.37
194.92
145.71
70.04
-12.80
-86.65
-144.71
-186.71
-214.89
-232.20
-241.37
-241.19
-231.05
-212.74
-189.83
-165.56
-142.05
-120.78
-103.20
-90.69
-81.62
-73.88
-67.61
-64.08
-63.91
-66.48
-70.46
-74.66
-78.43
-80.10
-78.97
-75.93
-72.60
-69.94
-67.87
-65.75
-62.99
-59.34
-54.02
-46.56
-36.93
-26.15
-14.89
-3.45
8.07
19.53
30.63
41.28
51.18
59.76
66.33
70.39
71.65
70.06
65.81
59.43
51.86
44.32
38.04
34.00
32.70
33.89
36.77
40.18
43.04
44.67
44.87
43.87
42.05
39.85
37.48
34.97
32.24
29.20
25.82
22.19
18.43
14.72
11.20
8.01
5.23
2.86
0.87
-0.86
-2.48
-4.15
-6.01
-8.12
-10.47
-13.00
-15.63
-18.36
-21.25
-24.50
-28.29
-32.75
-37.72
-42.81
-47.37
-50.68
-52.13
-51.41
-48.60
-44.15
-38.70
-32.96
-27.52
-22.73
-18.68
-15.28
-12.36
-9.80
-7.56
-5.69
-4.25
-3.25
-2.59
-2.09
-1.54
-0.78
0.29
1.66
3.25
4.95
6.63
8.14
9.32
10.04
10.23
9.90
9.14
8.09
6.83
5.38
3.68
1.60
-0.91
-3.78
-6.74
-9.31
-10.96
-11.23
-9.88
-6.99
-2.94
1.71
6.37
10.62
14.20
17.03
19.12
20.50
21.19
21.27
20.85
20.08
19.11
18.00
16.74
15.25
13.49
11.50
9.40
7.43
5.75
4.44
3.38
2.34
1.05
-0.66
-2.78
-5.12
-7.42
-9.45
-11.14
-12.58
-13.97
-15.57
-17.54
-19.96
-22.69
-25.36
-27.42
-28.24
-27.30
-24.40
-19.75
-13.92
-7.63
-1.54
3.93
8.60
12.47
15.65
18.21
20.23
21.72
22.67
23.01
22.65
21.53
19.67
17.22
14.36
11.36
8.41
5.68
3.31
1.33
-0.27
-1.57
-2.74
-3.95
-5.37
-7.10
-9.15
-11.48
-13.96
-16.37
-18.50
-20.22
-21.59
-22.81
-24.18
-25.86
-27.70
-29.26
-29.91
-29.13
-26.72
-22.89
-18.12
-12.98
-7.93
-3.19
1.18
5.17
8.76
11.84
14.25
15.83
16.53
16.42
15.74
14.76
13.79
12.97
12.32
11.82
11.44
11.17
11.02
11.01
11.13
11.29
11.28
10.89
9.98
8.63
7.16
5.94
5.26
5.14
5.35
5.31
4.49
2.73
0.43
-1.58
-2.35
-1.14
2.25
7.54
13.62
19.24
23.54
26.42
28.47
30.47
33.00
36.24
39.95
42.76
43.29
40.78
35.73
29.53
23.67
19.20
16.46
15.17
13.32
8.73
-0.02
-12.64
-27.38
-42.01
-54.45
-63.08
-67.04
-68.30
-70.07
-75.95
-88.38
-108.27
-135.37
-168.45
-205.32
-232.81
-238.90
-218.61
-178.60
-131.83
-89.40
-56.97
-35.15
-21.02
-9.76
-0.23
10.10
22.34
36.77
52.99
69.66
85.01
97.64
107.20
113.21
114.68
112.27
108.35
106.04
107.83
114.75
126.23
140.33
153.62
163.17
167.79
169.07
170.64
176.04
186.56
200.20
212.42
217.88
213.60
200.29
181.84
163.00
146.79
133.62
122.32
112.00
103.06
97.09
95.54
98.44
104.35
111.20
117.36
122.36
126.30
128.94
129.18
125.30
115.85
100.66
81.00
58.95
36.46
14.62
-6.47
-27.25
-48.07
-68.84
-88.88
-107.23
-122.93
-135.31
-144.18
-149.82
-152.84
-153.92
-153.63
-152.33
-150.24
-147.50
-144.13
-140.05
-134.87
-128.09
-119.26
-108.41
-96.23
-84.03
-73.28
-65.09
-59.80
-56.98
-55.79
-55.45
-55.60
-56.20
-57.36
-59.10
-61.40
-64.31
-68.03
-72.83
-78.62
-84.72
-89.92
-93.14
-94.13
-93.77
-93.70
-95.49
-99.87
-106.47
-114.14
-121.68
-128.46
-134.57
-140.44
-146.25
-151.66
-155.93
-158.45
-159.05
-158.32
-157.54
-158.38
-162.34
-170.09
-181.17
-194.01
-206.68
-216.93
-222.89
-223.92
-220.98
-216.15
-211.70
-209.52
-210.54
-215.08
-221.36
-225.91
-225.00
-216.27
-199.22
-174.94
-145.30
-111.79
-76.22
-38.76
0.80
41.07
78.15
107.39
125.99
133.89
133.56
126.89
116.80
106.87
100.30
99.29
105.25
119.13
140.08
173.01
210.42
238.03
246.18
237.78
222.23
206.33
193.52
183.10
173.85
162.65
148.31
132.30
117.21
104.75
95.08
87.68
81.46
76.21
70.06
61.65
50.75
38.38
26.49
18.20
17.56
27.33
48.74
77.62
107.20
131.49
148.11
158.36
165.55
172.28
178.46
183.74
185.67
182.31
174.07
163.74
154.70
149.56
149.72
143.05
125.11
97.17
62.14
20.71
-26.85
-77.16
-122.86
-156.01
-174.80
-178.48
-170.11
-154.92
-137.19
-118.30
-97.38
-73.06
-46.48
-20.93
-0.53
10.87
12.73
8.60
3.32
-0.27
-2.57
-6.08
-13.18
-22.93
-32.69
-39.38
-40.82
-36.66
-28.59
-19.76
-13.02
-11.43
-15.49
-23.58
-32.69
-39.90
-43.72
-44.66
-44.55
-45.42
-48.19
-51.64
-53.34
-51.05
-43.87
-32.46
-19.62
-7.81
1.38
7.53
11.28
13.68
15.50
16.96
17.79
17.68
16.81
15.73
15.06
15.21
16.15
17.35
18.14
17.99
16.85
15.35
14.38
14.67
16.49
19.46
22.76
25.48
27.08
27.61
27.84
28.90
31.83
37.24
45.13
55.02
66.16
77.84
89.52
100.76
111.15
120.21
127.47
132.48
134.86
134.19
130.11
122.44
111.43
97.97
83.50
69.57
57.29
46.86
37.53
28.11
17.54
5.34
-8.42
-23.48
-39.93
-58.32
-79.00
-101.61
-124.57
-145.07
-160.12
-167.59
-166.86
-158.76
-144.87
-126.97
-106.92
-86.71
-68.64
-55.17
-47.99
-47.41
-52.01
-59.03
-65.39
-68.77
-68.47
-65.52
-62.08
-60.30
-61.33
-64.67
-68.35
-69.82
-67.03
-59.32
-47.60
-33.92
-20.15
-7.48
3.68
13.57
22.50
30.89
39.43
49.11
60.95
75.41
91.64
107.49
120.10
126.72
125.80
117.49
103.61
87.00
70.68
56.99
47.07
40.79
36.98
34.01
30.34
24.96
17.53
8.39
-1.74
-12.00
-21.50
-29.49
-35.37
-38.78
-39.71
-38.51
-35.83
-32.35
-28.51
-24.29
-19.32
-13.05
-5.10
4.48
15.19
26.15
36.31
44.64
50.29
52.66
51.49
46.98
39.78
30.94
21.66
13.02
5.73
-0.01
-4.41
-7.86
-10.74
-13.33
-15.84
-18.57
-21.92
-26.30
-31.87
-38.35
-44.94
-50.54
-54.13
-55.02
-53.11
-48.77
-42.63
-35.39
-27.67
-20.05
-13.03
-7.11
-2.69
-0.02
0.88
0.19
-1.69
-4.23
-6.92
-9.32
-11.19
-12.57
-13.76
-15.30
-17.74
-21.52
-26.77
-33.22
-40.21
-46.82
-52.07
-55.17
-55.63
-53.39
-48.75
-42.21
-34.26
-25.24
-15.36
-4.83
5.90
16.12
24.89
31.38
35.15
36.35
35.70
34.19
32.78
32.10
32.39
33.50
35.06
36.54
37.33
36.81
34.46
30.07
23.97
17.09
10.75
6.30
4.59
5.68
8.80
12.70
16.01
17.80
17.73
16.03
13.29
10.16
7.10
4.26
1.53
-1.39
-4.82
-8.95
-13.71
-18.76
-23.47
-27.02
-28.55
-27.38
-23.16
-16.04
-6.75
3.55
13.48
21.71
27.37
30.14
30.27
28.45
25.48
22.06
18.63
15.36
12.32
9.68
7.75
6.93
7.49
9.33
11.99
14.81
17.19
18.83
19.67
19.73
18.90
16.83
13.13
7.64
0.72
-6.81
-13.95
-19.97
-24.66
-28.34
-31.57
-34.69
-37.61
-39.73
-40.25
-38.60
-34.67
-28.94
-22.26
-15.50
-9.29
-3.89
0.75
4.72
8.03
10.53
11.98
12.25
11.45
9.93
8.17
6.68
5.72
5.32
5.29
5.35
5.28
4.95
4.30
3.25
1.67
-0.59
-3.52
-6.85
-9.99
-12.16
-12.59
-10.81
-6.79
-0.94
5.97
13.06
19.52
24.75
28.47
30.63
31.36
30.85
29.27
26.72
23.32
19.28
14.94
10.75
7.20
4.65
3.17
2.56
2.38
2.12
1.34
-0.14
-2.23
-4.54
-6.57
-7.82
-7.96
-6.84
-4.49
-1.02
3.44
8.70
14.50
20.36
25.67
29.79
32.25
32.86
31.80
29.51
26.48
23.12
19.68
16.23
12.69
9.00
5.07
0.92
-3.43
-7.92
-12.54
-17.29
-22.13
-26.86
-31.13
-34.41
-36.14
-35.94
-33.72
-29.72
-24.41
-18.38
-12.14
-6.05
-0.33
4.89
9.49
13.33
16.25
18.05
18.64
18.04
16.42
14.06
11.31
8.45
5.71
3.21
1.00
-0.88
-2.46
-3.85
-5.26
-6.95
-9.08
-11.59
-14.13
-16.14
-17.02
-16.34
-13.99
-10.16
-5.22
0.33
6.01
11.41
16.15
19.93
22.55
23.92
24.07
23.09
21.11
18.29
14.82
10.92
6.85
2.85
-0.89
-4.25
-7.20
-9.79
-12.13
-14.38
-16.75
-19.43
-22.49
-25.84
-29.16
-31.95
-33.64
-33.76
-32.04
-28.53
-23.52
-17.45
-10.86
-4.21
2.13
7.82
12.61
16.27
18.68
19.83
19.87
19.05
17.65
15.91
13.96
11.92
9.87
7.91
6.19
4.81
3.83
3.20
2.74
2.15
1.04
-0.91
-3.83
-7.55
-11.52
-14.95
-17.00
-17.09
-15.03
-11.08
-5.85
-0.08
5.59
10.69
14.96
18.30
20.69
22.18
22.79
22.57
21.61
20.02
17.98
15.67
13.26
10.83
8.39
5.88
3.24
0.46
-2.41
-5.29
-8.13
-10.96
-13.95
-17.29
-21.17
-25.58
-30.22
-34.53
-37.76
-39.24
-38.55
-35.64
-30.83
-24.65
-17.71
-10.51
-3.42
3.28
9.37
14.59
18.68
21.46
22.85
22.93
21.90
20.04
17.60
14.76
11.62
8.27
4.84
1.52
-1.52
-4.15
-6.38
-8.35
-10.23
-12.20
-14.37
-16.79
-19.45
-22.36
-25.55
-29.01
-32.65
-36.21
-39.27
-41.26
-41.57
-39.79
-35.77
-29.75
-22.27
-14.04
-5.72
2.18
9.38
15.77
21.30
25.91
29.49
31.93
33.13
33.05
31.76
29.46
26.46
23.09
19.68
16.43
13.46
10.76
8.30
6.04
3.94
1.99
0.12
-1.75
-3.75
-6.00
-8.59
-11.50
-14.67
-17.94
-21.07
-23.78
-25.76
-26.65
-26.11
-23.92
-20.05
-14.72
-8.39
-1.65
4.94
10.94
16.09
20.27
23.45
25.61
26.75
26.91
26.19
24.79
22.92
20.72
18.30
15.70
12.95
10.09
7.22
4.45
1.86
-0.50
-2.66
-4.72
-6.80
-9.06
-11.63
-14.65
-18.13
-21.96
-25.81
-29.19
-31.51
-32.24
-31.10
-28.10
-23.57
-18.00
-11.94
-5.83
0.04
5.54
10.61
15.22
19.28
22.62
25.04
26.33
26.38
25.27
23.22
20.61
17.82
15.18
12.83
10.79
8.96
7.20
5.42
3.60
1.76
-0.06
-1.84
-3.66
-5.66
-8.02
-10.86
-14.10
-17.44
-20.37
-22.25
-22.54
-20.94
-17.47
-12.50
-6.58
-0.34
5.72
11.27
16.18
20.39
23.85
26.45
28.06
28.57
27.99
26.46
24.28
21.78
19.20
16.72
14.36
12.09
9.84
7.55
5.18
2.71
0.16
-2.40
-4.92
-7.33
-9.68
-12.04
-14.56
-17.38
-20.57
-24.11
-27.80
-31.25
-33.99
-35.45
-35.18
-32.95
-28.85
-23.27
-16.75
-9.89
-3.13
3.23
9.03
14.20
18.62
22.20
24.84
26.49
27.18
27.00
26.04
24.40
22.21
19.62
16.83
14.07
11.50
9.20
7.11
5.03
2.78
0.23
-2.60
-5.60
-8.56
-11.37
-14.00
-16.58
-19.30
-22.31
-25.63
-29.04
-32.11
-34.30
-35.06
-34.03
-31.14
-26.65
-21.04
-14.86
-8.63
-2.68
2.84
7.85
12.28
16.00
18.82
20.55
21.12
20.61
19.23
17.28
15.05
12.74
10.52
8.44
6.53
4.76
3.11
1.51
-0.07
-1.69
-3.39
-5.14
-6.89
-8.54
-10.04
-11.41
-12.82
-14.53
-16.78
-19.67
-23.03
-26.36
-29.02
-30.32
-29.77
-27.21
-22.74
-16.71
-9.61
-1.96
5.69
12.82
18.97
23.80
27.17
29.17
30.09
30.30
30.08
29.56
28.66
27.22
25.08
22.26
19.00
15.65
12.57
9.95
7.75
5.73
3.61
1.21
-1.46
-4.24
-6.93
-9.44
-11.82
-14.27
-16.98
-20.08
-23.54
-27.22
-30.81
-33.94
-36.17
-37.04
-36.18
-33.42
-28.85
-22.86
-16.03
-8.98
-2.23
3.88
9.17
13.55
17.00
19.50
21.10
21.84
21.86
21.35
20.45
19.28
17.90
16.29
14.44
12.35
10.08
7.72
5.38
3.14
1.05
-0.92
-2.85
-4.86
-7.07
-9.51
-12.17
-14.99
-17.85
-20.59
-23.01
-24.84
-25.82
-25.72
-24.40
-21.79
-17.96
-13.06
-7.29
-0.92
5.75
12.36
18.53
23.90
28.25
31.49
33.66
34.87
35.23
34.84
33.73
31.96
29.64
26.91
23.92
20.75
17.42
13.88
10.08
6.06
1.92
-2.17
-6.13
-9.91
-13.56
-17.12
-20.59
-23.89
-26.92
-29.63
-32.05
-34.25
-36.26
-37.90
-38.80
-38.41
-36.23
-31.98
-25.81
-18.27
-10.14
-2.20
4.97
11.11
16.13
20.00
22.64
23.86
23.56
21.80
18.91
15.41
11.85
8.65
5.99
3.79
1.87
0.04
-1.74
-3.40
-4.74
-5.55
-5.65
-5.01
-3.75
-2.14
-0.53
0.67
1.13
0.63
-0.85
-3.10
-5.64
-7.80
-8.86
-8.29
-5.86
-1.72
3.67
9.71
15.80
21.47
26.37
30.25
32.97
34.41
34.57
33.52
31.48
28.73
25.60
22.34
19.08
15.86
12.59
9.18
5.60
1.95
-1.62
-4.91
-7.77
-10.20
-12.30
-14.29
-16.35
-18.66
-21.31
-24.28
-27.48
-30.72
-33.71
-36.09
-37.40
-37.24
-35.32
-31.59
-26.21
-19.58
-12.20
-4.57
2.91
9.93
16.30
21.84
26.39
29.80
31.98
32.95
32.83
31.85
30.28
28.28
25.96
23.35
20.53
17.66
15.05
12.96
11.53
10.65
9.96
9.02
7.47
5.13
2.03
-1.67
-5.71
-9.71
-13.16
-15.40
-15.82
-14.03
-10.10
-4.55
1.82
8.26
14.29
19.77
24.75
29.26
33.21
36.37
38.60
39.92
40.52
40.59
40.24
39.35
37.68
35.07
31.54
27.40
23.07
18.92
15.14
11.67
8.19
4.32
-0.32
-6.00
-12.74
-20.37
-28.52
-36.64
-44.17
-50.64
-55.79
-59.61
-62.32
-64.27
-65.78
-67.01
-67.95
-68.43
-68.26
-67.33
-65.72
-63.65
-61.40
-59.23
-57.32
-55.74
-54.54
-53.68
-53.12
-52.72
-52.21
-51.17
-49.15
-45.75
-40.71
-34.01
-25.79
-16.37
-6.23
3.99
13.45
21.27
26.69
29.31
29.23
27.08
23.87
20.77
18.78
18.63
20.58
24.50
29.93
36.22
42.73
48.96
54.60
59.52
63.70
67.13
69.75
71.47
72.13
71.49
69.32
65.45
59.89
52.95
45.24
37.49
30.39
24.33
19.25
14.73
10.14
5.05
-0.58
-6.28
-11.28
-14.82
-16.47
-16.20
-14.36
-11.55
-8.35
-5.16
-2.16
0.54
2.80
4.43
5.25
5.22
4.38
2.98
1.42
0.12
-0.70
-1.10
-1.36
-1.80
-2.60
-4.01
-6.00
-8.18
-9.91
-10.68
-10.36
-9.29
-8.04
-7.23
-7.91
-10.69
-15.25
-20.38
-24.62
-26.89
-26.88
-24.94
-22.08
-20.75
-23.25
-30.67
-42.32
-56.17
-69.64
-80.31
-86.44
-87.59
-86.13
-85.42
-88.05
-94.73
-104.49
-115.63
-126.52
-136.02
-134.53
-116.40
-82.69
-41.01
-0.15
34.44
60.73
78.53
88.57
92.12
89.69
82.25
71.57
59.96
49.28
40.69
35.22
34.55
39.26
48.97
61.76
75.09
86.64
94.56
97.57
95.57
90.21
83.37
76.06
68.38
60.70
53.87
48.70
45.10
42.12
38.89
34.21
26.33
13.76
-2.80
-18.22
-25.71
-21.44
-11.20
0.42
9.31
13.93
12.29
4.48
-7.17
-18.71
-27.13
-30.62
-28.05
-19.68
-6.81
7.78
21.43
31.99
38.73
40.66
37.34
29.44
18.24
9.35
7.52
14.83
24.11
33.37
41.24
49.09
56.47
62.58
66.88
68.69
67.75
64.17
59.06
52.49
44.35
34.90
25.28
17.17
11.60
9.00
9.17
12.14
16.67
21.00
23.23
22.21
17.73
10.10
0.28
-10.47
-20.41
-28.67
-35.05
-39.93
-43.57
-45.96
-46.94
-46.19
-43.41
-38.28
-31.22
-23.19
-15.52
-9.46
-5.95
-5.58
-8.49
-14.44
-22.78
-32.59
-42.85
-52.50
-60.57
-66.44
-69.89
-71.11
-70.57
-68.81
-66.26
-63.24
-59.92
-56.38
-52.74
-49.13
-45.78
-42.93
-40.79
-39.50
-39.09
-39.42
-40.29
-41.43
-42.55
-43.42
-43.94
-44.22
-44.49
-45.05
-46.06
-47.52
-49.06
-49.97
-49.40
-46.67
-41.63
-34.62
-26.33
-17.50
-8.74
-0.37
7.47
14.75
21.31
26.66
30.46
32.70
33.70
33.92
33.80
33.65
33.54
33.36
32.29
29.99
26.83
23.53
20.63
18.27
16.24
14.09
11.30
6.28
-1.41
-10.84
-20.38
-28.87
-35.93
-41.82
-47.11
-52.49
-60.30
-71.32
-84.45
-97.94
-110.98
-123.91
-137.27
-150.98
-164.00
-176.90
-188.27
-194.87
-193.55
-183.08
-164.30
-139.15
-109.87
-63.63
-1.34
64.00
117.29
151.98
170.20
177.55
179.24
178.59
176.77
170.90
159.16
142.10
122.08
101.66
83.07
68.04
57.51
51.41
46.44
40.95
35.26
30.71
28.15
27.38
27.60
27.88
27.61
25.44
21.26
16.06
11.13
7.16
4.22
2.12
0.78
0.14
-0.41
-1.42
-2.74
-3.82
-3.98
-2.62
0.60
5.64
11.88
18.11
23.31
27.05
29.45
30.95
31.82
32.04
31.31
29.33
26.20
22.55
19.36
17.49
17.28
18.29
19.57
20.04
18.98
16.21
12.00
6.82
1.12
-4.73
-10.31
-15.14
-18.67
-20.51
-20.66
-19.58
-18.02
-16.77
-16.29
-16.56
-17.13
-17.31
-16.47
-14.21
-10.40
-5.05
1.67
9.52
18.12
26.93
35.29
42.55
48.20
51.96
53.84
54.00
52.80
50.66
48.06
45.47
43.27
41.62
40.45
39.50
38.47
37.11
35.37
33.32
31.06
28.59
25.79
22.44
18.37
13.60
8.33
2.94
-2.19
-6.78
-10.77
-14.24
-17.40
-20.52
-23.85
-27.54
-31.63
-35.94
-40.08
-43.53
-45.71
-46.17
-44.68
-41.30
-36.28
-30.05
-23.05
-15.78
-8.70
-2.29
3.10
7.27
10.30
12.44
14.08
15.61
17.27
19.14
21.06
22.80
24.06
24.55
24.11
22.68
20.36
17.37
13.99
10.40
6.66
2.61
-1.98
-7.27
-13.23
-19.62
-26.09
-32.29
-38.02
-43.25
-48.06
-52.56
-56.79
-60.70
-64.05
-66.50
-67.63
-67.06
-64.56
-60.15
-54.08
-46.75
-38.60
-30.06
-21.50
-13.30
-5.85
0.50
5.59
9.46
12.38
14.73
16.85
18.89
20.78
22.35
23.40
23.85
23.76
23.25
22.43
21.31
19.87
18.06
15.89
13.45
10.88
8.28
5.68
3.10
0.53
-2.02
-4.52
-6.97
-9.42
-11.91
-14.47
-16.98
-19.17
-20.61
-20.87
-19.66
-16.96
-13.04
-8.39
-3.51
1.20
5.53
9.43
12.90
15.91
18.37
20.14
21.17
21.52
21.32
20.68
19.64
18.16
16.23
13.98
11.72
9.86
8.70
8.27
8.25
8.09
7.28
5.58
3.18
0.53
-1.88
-3.77
-5.18
-6.39
-7.70
-9.31
-11.22
-13.32
-15.46
-17.47
-19.09
-19.99
-19.80
-18.29
-15.41
-11.37
-6.57
-1.43
3.72
8.63
13.17
17.17
20.43
22.77
24.12
24.59
24.44
23.92
23.27
22.51
21.56
20.26
18.52
16.38
14.02
11.70
9.63
7.87
6.29
4.68
2.84
0.71
-1.59
-3.84
-5.82
-7.44
-8.82
-10.20
-11.86
-13.97
-16.55
-19.40
-22.23
-24.67
-26.38
-27.02
-26.36
-24.20
-20.54
-15.54
-9.62
-3.30
2.85
8.40
13.12
16.99
20.05
22.39
24.00
24.86
24.95
24.35
23.27
21.94
20.57
19.29
18.08
16.85
15.43
13.73
11.73
9.53
7.29
5.20
3.31
1.57
-0.17
-2.09
-4.27
-6.67
-9.17
-11.66
-14.13
-16.67
-19.35
-22.03
-24.33
-25.74
-25.75
-24.10
-20.85
-16.33
-11.02
-5.35
0.35
5.84
10.90
15.24
18.53
20.56
21.27
20.90
19.86
18.62
17.50
16.56
15.63
14.41
12.70
10.50
8.03
5.63
3.46
1.49
-0.55
-3.02
-6.15
-9.90
-14.00
-18.09
-21.83
-25.06
-27.83
-30.29
-32.70
-35.27
-38.19
-41.53
-45.16
-48.75
-51.77
-53.66
-53.99
-52.70
-50.03
-46.50
-42.56
-38.48
-34.24
-29.62
-24.36
-18.33
-11.55
-4.21
3.45
11.18
18.73
25.89
32.44
38.23
43.22
47.41
50.92
53.86
56.34
58.44
60.18
61.53
62.46
62.83
62.55
61.55
59.81
57.41
54.48
51.14
47.52
43.66
39.54
35.11
30.32
25.19
19.85
14.60
9.79
5.75
2.61
0.30
-1.36
-2.60
-3.49
-4.04
-4.22
-4.13
-4.00
-4.09
-4.53
-5.31
-6.26
-7.28
-8.36
-9.65
-11.29
-13.29
-15.47
-17.51
-19.10
-20.06
-20.38
-20.26
-20.00
-19.94
-20.28
-21.09
-22.16
-23.16
-23.73
-23.64
-22.98
-22.01
-21.12
-20.60
-20.56
-20.90
-21.38
-21.69
-21.52
-20.55
-18.49
-15.11
-10.35
-4.37
2.47
9.65
16.62
22.91
28.20
32.34
35.23
36.81
37.03
35.88
33.46
30.09
26.20
22.25
18.58
15.27
12.23
9.27
6.28
3.30
0.48
-2.00
-4.04
-5.65
-6.88
-7.81
-8.44
-8.73
-8.68
-8.34
-7.90
-7.60
-7.73
-8.41
-9.58
-10.95
-12.10
-12.61
-12.14
-10.53
-7.82
-4.14
0.24
5.04
9.90
14.46
18.33
21.22
22.93
23.44
22.84
21.37
19.30
16.97
14.65
12.57
10.79
9.23
7.65
5.83
3.63
1.11
-1.55
-4.08
-6.29
-8.15
-9.72
-11.13
-12.49
-13.87
-15.30
-16.86
-18.67
-20.84
-23.40
-26.23
-29.10
-31.67
-33.57
-34.54
-34.39
-33.05
-30.55
-27.07
-22.84
-18.16
-13.33
-8.56
-4.06
0.09
3.79
6.99
9.66
11.74
13.23
14.12
14.45
14.31
13.84
13.19
12.49
11.78
11.03
10.15
9.01
7.55
5.79
3.88
1.97
0.23
-1.26
-2.55
-3.76
-5.00
-6.35
-7.80
-9.32
-10.93
-12.71
-14.78
-17.15
-19.59
-21.61
-22.56
-21.93
-19.57
-15.78
-11.17
-6.41
-1.96
2.06
5.78
9.38
12.94
16.41
19.67
22.67
25.51
28.31
31.19
34.13
37.04
39.77
42.31
44.73
47.14
49.49
51.50
52.67
52.51
50.80
47.73
43.90
39.98
36.42
33.12
29.51
24.79
18.37
10.32
1.45
-6.91
-13.26
-16.51
-16.22
-12.83
-7.53
-2.05
1.49
0.88
-5.81
-19.65
-40.31
-65.68
-92.15
-115.41
-131.64
-138.55
-135.93
-125.41
-109.71
-91.83
-74.24
-58.70
-46.14
-36.72
-29.93
-24.76
-19.88
-14.12
-6.88
1.79
11.24
20.38
28.18
33.83
36.73
36.86
35.01
32.66
31.58
32.96
36.95
42.75
49.33
56.21
63.72
72.36
81.82
90.30
94.72
92.04
80.63
61.08
35.96
8.77
-17.24
-39.71
-57.16
-68.89
-74.83
-75.65
-72.85
-68.33
-63.72
-60.14
-57.93
-56.82
-56.44
-56.64
-57.62
-59.90
-63.98
-69.98
-77.31
-84.57
-89.77
-90.97
-87.06
-78.31
-66.35
-53.60
-42.29
-33.73
-27.84
-23.51
-19.17
-13.56
-6.09
3.16
13.76
25.33
37.81
51.43
66.49
82.79
99.56
115.28
128.10
136.35
138.95
135.53
126.45
112.74
96.15
79.08
64.10
53.01
45.95
40.91
34.34
22.67
3.98
-20.96
-48.84
-75.15
-95.91
-108.86
-113.85
-112.23
-105.91
-96.68
-85.91
-74.68
-63.97
-54.70
-47.63
-43.23
-41.32
-40.99
-40.72
-38.73
-33.58
-24.68
-12.52
1.43
15.35
27.66
37.51
44.83
50.19
54.38
58.08
61.63
65.01
67.92
70.00
71.03
71.05
70.53
70.19
70.80
72.74
75.80
79.09
81.38
81.53
78.86
73.17
64.60
53.37
39.91
25.04
10.18
-2.98
-13.24
-20.60
-26.53
-33.33
-42.97
-55.97
-70.97
-85.36
-96.34
-101.94
-101.54
-95.61
-85.20
-71.50
-55.71
-39.04
-22.92
-8.91
1.52
7.30
8.13
4.83
-0.77
-6.25
-9.40
-9.06
-5.53
-0.26
4.96
8.90
11.38
12.99
14.45
15.97
17.15
17.31
16.09
13.83
11.43
9.91
9.91
11.49
14.37
18.27
23.23
29.54
37.44
46.82
57.09
67.36
76.70
84.36
89.84
92.84
93.12
90.63
85.66
78.94
71.46
64.00
56.62
48.50
38.44
25.56
9.94
-7.26
-24.35
-39.77
-52.63
-62.73
-70.19
-75.08
-77.21
-76.36
-72.54
-66.03
-57.28
-46.63
-34.33
-20.82
-7.17
4.76
12.78
15.22
11.81
4.08
-5.13
-12.58
-15.93
-14.38
-8.65
-0.47
8.29
16.20
22.49
26.99
29.93
31.74
32.78
33.12
32.50
30.31
25.98
19.34
10.93
1.86
-6.67
-14.15
-21.20
-29.55
-41.26
-57.59
-78.02
-99.98
-119.56
-132.88
-137.47
-133.10
-121.62
-106.05
-89.43
-73.92
-60.51
-49.24
-39.67
-31.03
-22.58
-13.68
-4.12
5.87
15.58
24.11
30.86
35.77
39.45
42.92
47.47
54.06
63.11
74.18
85.72
95.34
100.36
98.66
89.74
75.32
59.20
46.21
40.34
43.04
52.34
63.25
69.56
66.23
51.28
26.43
-3.75
-33.71
-58.83
-76.46
-86.05
-88.38
-84.90
-77.18
-66.90
-55.77
-45.57
-37.83
-33.26
-31.68
-32.01
-32.67
-32.29
-30.22
-26.68
-22.46
-18.47
-15.10
-12.04
-8.39
-3.19
4.11
13.15
22.73
31.11
36.51
37.55
33.56
24.74
12.11
-2.65
-17.42
-30.01
-38.66
-42.66
-42.76
-41.20
-41.09
-45.29
-55.28
-70.34
-87.61
-102.96
-112.41
-113.35
-105.28
-89.79
-69.75
-48.31
-27.79
-9.22
7.63
23.66
39.81
56.39
72.79
87.71
99.59
107.23
110.18
108.87
104.54
98.77
93.44
90.01
89.12
90.37
92.29
92.46
87.79
75.28
53.43
24.20
-6.61
-30.46
-38.93
-27.22
3.36
45.14
86.97
118.53
135.11
137.78
131.34
121.03
110.24
100.00
90.01
80.12
71.10
65.64
65.50
70.01
76.17
80.21
79.68
74.25
65.41
55.41
48.04
45.77
48.78
55.30
63.11
70.86
78.10
84.57
78.79
53.94
11.36
-39.19
-86.49
-123.74
-149.08
-163.86
-170.86
-173.00
-170.74
-163.95
-153.17
-140.20
-127.65
-117.68
-111.24
-107.83
-105.85
-101.91
-93.50
-80.29
-64.09
-47.62
-33.30
-22.79
-17.18
-16.90
-20.65
-26.07
-30.99
-33.74
-33.79
-31.63
-28.57
-25.91
-24.19
-22.40
-19.01
-13.05
-4.57
5.37
15.59
25.30
33.79
40.05
42.70
40.20
31.90
18.78
3.63
-9.70
-17.80
-19.11
-14.29
-5.65
3.99
12.37
18.38
21.51
21.50
18.10
11.29
1.68
-9.25
-19.30
-26.26
-28.58
-26.06
-19.82
-11.95
-4.68
0.28
2.27
1.63
-0.57
-3.02
-4.81
-5.61
-5.74
-5.83
-6.44
-7.70
-9.37
-11.13
-12.83
-14.60
-16.79
-19.60
-22.84
-25.88
-27.90
-27.66
-24.64
-19.07
-11.90
-4.34
2.61
8.46
13.22
17.17
20.58
23.42
25.51
26.74
27.14
26.96
26.47
25.85
25.11
24.22
23.14
21.97
20.89
19.94
18.99
17.74
15.93
13.55
10.89
8.40
6.48
5.33
4.84
4.71
4.62
4.29
3.52
2.27
0.51
-1.60
-3.70
-5.15
-5.17
-3.09
1.43
8.16
16.40
25.21
33.64
40.99
46.82
50.82
52.78
52.53
49.98
45.29
38.86
31.42
23.84
16.97
11.45
7.59
5.26
3.98
3.11
2.03
0.36
-2.05
-5.21
-9.09
-13.76
-19.29
-25.59
-32.37
-39.09
-45.15
-50.13
-53.89
-56.58
-58.41
-59.41
-59.26
-57.37
-53.10
-46.15
-36.82
-25.99
-14.89
-4.75
3.62
10.03
14.80
18.52
21.72
24.61
27.04
28.53
28.60
26.93
23.59
18.98
13.75
8.64
4.20
0.72
-1.84
-3.80
-5.66
-7.94
-10.98
-14.75
-18.71
-21.93
-23.34
-22.18
-18.37
-12.64
-6.39
-1.26
1.45
1.17
-1.70
-5.87
-9.63
-11.33
-9.88
-5.04
2.66
12.17
22.29
31.91
40.21
46.60
50.73
52.42
51.69
48.85
44.43
39.20
33.93
29.25
25.54
22.83
20.87
19.31
17.89
16.49
15.14
13.89
12.64
11.16
9.23
6.71
3.73
0.61
-2.34
-4.93
-7.48
-10.42
-14.03
-18.31
-23.17
-28.37
-33.49
-37.93
-40.93
-42.01
-40.85
-37.26
-31.33
-23.59
-14.90
-6.16
1.94
9.07
14.61
18.38
20.83
22.81
24.99
27.61
30.65
33.95
37.25
38.55
36.61
32.10
27.26
24.31
24.49
28.00
34.03
40.98
43.44
37.69
24.19
7.04
-9.12
-20.66
-25.13
-21.41
-10.18
0.24
1.96
-8.10
-28.23
-55.52
-87.47
-121.64
-155.51
-186.98
-222.00
-264.81
-313.54
-361.85
-404.91
-441.71
-473.46
-501.68
-482.01
-394.11
-258.16
-117.86
-2.92
80.21
137.34
176.92
205.87
228.51
239.74
235.99
219.96
199.64
182.01
170.31
164.87
164.58
167.75
166.57
156.45
138.20
117.05
97.62
81.88
70.18
62.56
59.28
57.34
54.85
52.19
51.38
53.34
57.20
61.54
65.50
68.84
69.72
68.57
65.75
62.12
57.92
52.68
45.95
37.85
29.02
19.78
10.73
2.40
-4.29
-8.60
-10.06
-8.56
-4.44
1.30
7.15
11.45
12.74
10.61
5.67
-0.73
-7.15
-12.65
-16.98
-20.33
-22.90
-24.79
-25.76
-25.53
-24.09
-21.78
-19.14
-16.65
-14.54
-12.81
-11.53
-10.98
-11.63
-14.04
-18.42
-24.53
-31.61
-38.67
-44.86
-49.76
-53.49
-56.50
-59.39
-62.55
-66.01
-69.39
-72.14
-73.79
-74.20
-73.68
-72.97
-72.95
-74.47
-78.09
-84.00
-91.95
-101.18
-110.26
-117.12
-119.36
-114.85
-102.36
-82.05
-55.53
-25.35
5.68
35.08
61.07
82.44
98.40
108.36
111.94
109.09
100.39
87.04
70.84
53.77
37.66
23.75
12.46
3.43
-4.19
-11.23
-18.16
-24.99
-31.46
-37.36
-42.93
-48.76
-55.64
-64.15
-74.31
-85.60
-97.06
-107.70
-116.64
-123.18
-126.51
-125.57
-119.11
-106.01
-85.87
-59.31
-27.81
6.86
43.33
80.86
118.74
155.47
188.23
213.36
227.69
230.04
221.80
206.24
186.96
166.36
145.02
122.35
97.80
72.00
46.85
24.84
7.87
-3.61
-10.64
-15.15
-19.10
-23.78
-29.52
-35.76
-41.60
-46.13
-48.69
-48.90
-46.50
-41.30
-33.31
-22.85
-10.75
1.84
13.85
24.34
32.63
38.34
41.37
41.80
39.87
36.00
30.66
24.39
17.46
9.76
0.97
-9.12
-20.38
-32.29
-44.11
-54.94
-63.72
-69.84
-73.15
-73.85
-72.21
-68.57
-63.39
-57.32
-50.96
-43.70
-35.05
-24.79
-12.86
0.82
16.05
31.98
47.30
60.75
73.53
86.59
100.06
113.62
127.13
140.30
152.30
161.86
167.78
172.39
176.98
180.97
182.85
181.87
178.20
172.66
166.55
161.46
162.18
169.52
179.04
183.94
179.65
166.14
147.60
130.40
96.01
41.73
-20.75
-76.97
-121.09
-153.47
-175.33
-187.57
-191.90
-191.29
-185.20
-174.48
-161.54
-149.28
-139.66
-134.02
-133.46
-138.13
-146.41
-151.63
-148.85
-136.30
-115.73
-91.12
-67.72
-50.78
-43.87
-47.66
-58.08
-70.67
-82.42
-92.15
-99.51
-104.35
-106.35
-104.93
-99.30
-87.89
-70.51
-48.78
-25.22
-1.95
19.81
39.57
57.03
71.52
82.18
87.79
87.63
82.36
74.31
66.69
62.20
61.82
64.39
67.40
68.21
65.44
59.44
51.88
44.78
39.63
36.91
36.23
36.74
37.52
37.84
37.12
34.92
31.00
25.32
18.17
10.13
2.01
-5.22
-10.66
-13.65
-13.95
-11.95
-8.55
-4.99
-2.48
-1.94
-3.79
-7.95
-13.91
-20.96
-28.42
-35.80
-42.84
-49.49
-55.68
-61.25
-65.90
-69.32
-71.30
-71.81
-71.10
-69.59
-67.77
-66.14
-64.96
-64.25
-63.67
-62.61
-60.36
-56.39
-50.48
-42.79
-33.67
-23.46
-12.30
-0.27
12.48
25.44
37.67
47.95
55.14
58.59
58.34
55.14
50.20
44.75
39.76
35.66
32.42
29.65
26.76
23.13
18.28
12.05
4.73
-2.77
-9.11
-12.88
-13.11
-9.66
-3.35
4.33
11.73
17.65
21.58
23.83
25.16
26.53
28.77
32.31
37.16
42.88
48.65
53.46
56.28
56.28
53.03
46.72
38.18
28.69
19.71
12.44
7.46
4.65
3.34
2.66
1.89
0.63
-1.19
-3.48
-6.18
-9.26
-12.68
-16.26
-19.70
-22.52
-24.22
-24.35
-22.69
-19.23
-14.21
-8.05
-1.12
6.29
14.02
21.99
30.04
37.73
44.31
48.81
50.40
48.70
44.11
37.75
31.14
25.69
22.23
20.87
21.20
22.63
24.71
27.15
29.64
31.58
32.08
29.95
23.99
13.21
-2.85
-23.79
-48.05
-72.74
-94.17
-108.69
-113.81
-108.94
-95.44
-75.86
-53.04
-29.42
-7.07
12.01
25.70
32.27
31.27
24.38
15.24
8.33
7.21
13.10
24.54
38.26
50.52
58.39
60.17
55.25
43.74
26.40
4.88
-18.16
-39.44
-55.91
-65.77
-68.93
-66.73
-60.98
-53.10
-43.69
-33.01
-21.72
-11.36
-4.04
-1.44
-3.75
-9.23
-14.79
-17.21
-14.46
-6.34
5.68
19.39
32.65
43.79
51.46
54.37
51.48
42.60
29.02
13.62
0.12
-8.23
-9.89
-5.57
2.25
10.33
15.74
16.42
11.38
0.78
-14.07
-30.68
-45.74
-55.83
-58.46
-52.88
-40.36
-23.63
-6.08
9.27
20.35
26.25
27.35
25.05
21.58
19.33
20.23
25.10
33.41
43.38
52.77
59.46
62.10
60.28
54.58
46.35
37.37
29.43
23.87
21.04
20.27
20.04
18.64
14.83
8.25
-0.59
-10.81
-21.63
-32.69
-43.93
-55.17
-65.68
-74.13
-78.94
-78.94
-73.91
-64.79
-53.31
-41.39
-30.37
-20.72
-12.22
-4.51
2.43
8.15
12.09
14.07
14.62
14.74
15.37
16.70
18.00
17.89
15.05
8.91
-0.15
-11.13
-23.02
-35.26
-47.87
-61.12
-75.11
-89.58
-103.97
-117.61
-129.94
-140.48
-148.67
-153.74
-154.75
-150.81
-141.41
-126.73
-107.67
-85.65
-62.35
-39.28
-17.52
2.35
20.19
36.06
50.00
61.86
71.43
78.52
83.23
85.87
86.94
86.89
86.01
84.45
82.31
79.76
77.04
74.41
72.04
69.94
67.96
65.82
63.20
59.86
55.65
50.59
44.91
38.94
33.04
27.44
22.20
17.10
11.86
6.20
0.05
-6.34
-12.45
-17.57
-21.07
-22.51
-21.83
-19.33
-15.59
-11.25
-6.81
-2.51
1.63
5.80
10.09
14.48
18.70
22.36
25.12
26.75
27.21
26.68
25.41
23.64
21.57
19.37
17.15
14.95
12.84
10.82
8.88
6.96
5.01
2.94
0.72
-1.65
-4.14
-6.66
-9.20
-11.86
-14.84
-18.32
-22.31
-26.47
-30.17
-32.62
-33.16
-31.49
-27.77
-22.58
-16.66
-10.74
-5.27
-0.48
3.62
7.07
9.87
11.92
13.13
13.41
12.85
11.63
10.05
8.36
6.74
5.21
3.68
2.05
0.19
-1.92
-4.21
-6.61
-9.03
-11.45
-13.91
-16.43
-19.01
-21.58
-24.07
-26.46
-28.83
-31.32
-33.96
-36.58
-38.69
-39.63
-38.80
-35.88
-30.96
-24.50
-17.06
-9.17
-1.16
6.75
14.41
21.59
28.05
33.54
37.92
41.15
43.34
44.63
45.23
45.31
45.01
44.39
43.42
42.02
40.13
37.86
35.42
33.10
31.11
29.48
28.02
26.47
24.65
22.62
20.60
18.90
17.71
16.99
16.49
15.85
14.77
13.13
11.09
9.03
7.59
7.50
9.47
14.03
21.45
31.68
44.38
59.00
74.86
91.23
107.37
122.61
136.19
147.24
154.66
157.14
153.46
142.87
125.58
102.86
76.93
50.41
25.68
4.40
-12.76
-26.03
-36.33
-44.93
-53.26
-62.69
-74.28
-88.55
-105.28
-123.33
-140.76
-155.18
-164.46
-167.27
-163.56
-154.46
-141.98
-128.21
-114.88
-102.97
-92.75
-84.11
-76.91
-71.09
-66.77
-64.05
-62.81
-62.71
-63.23
-63.76
-63.88
-63.43
-62.58
-61.73
-61.38
-61.86
-63.23
-65.25
-67.50
-69.61
-71.39
-72.89
-74.37
-76.11
-78.31
-80.91
-83.58
-85.72
-86.58
-85.42
-81.69
-75.24
-66.37
-55.75
-44.23
-32.63
-21.54
-11.33
-2.16
5.82
12.41
17.40
20.66
22.22
22.36
21.58
20.42
19.28
18.38
17.59
16.50
14.67
11.83
8.17
4.20
0.50
-2.56
-4.97
-7.14
-9.82
-13.90
-20.07
-28.58
-38.95
-49.91
-59.42
-64.68
-62.93
-52.38
-33.03
-6.73
23.23
53.13
79.87
101.81
119.31
133.68
145.61
154.42
158.56
156.65
148.40
134.86
118.09
101.26
86.69
74.38
62.15
47.77
30.75
12.88
-2.81
-13.39
-15.63
-8.32
6.28
22.97
36.37
42.85
41.23
32.34
18.73
6.71
3.48
13.90
38.78
76.21
122.73
173.89
224.08
252.58
241.25
188.47
111.35
31.29
-36.83
-86.29
-116.32
-130.16
-132.84
-126.92
-113.51
-94.28
-73.64
-55.79
-44.60
-41.95
-47.22
-57.37
-66.42
-68.84
-62.12
-48.05
-30.50
-13.18
1.90
13.59
22.03
29.26
35.06
39.18
41.67
43.75
46.47
49.73
52.25
52.60
50.67
47.60
45.25
44.87
47.04
50.99
54.86
56.44
54.00
46.68
35.36
19.66
-0.43
-23.66
-47.86
-69.98
-86.40
-93.88
-91.04
-79.37
-60.72
-42.59
-31.29
-29.39
-35.27
-45.25
-54.75
-60.71
-61.99
-58.91
-52.54
-43.28
-31.49
-17.90
-3.89
9.04
19.67
27.64
33.13
36.66
39.40
42.26
45.45
48.60
51.13
52.45
52.20
50.29
46.93
42.90
39.07
35.94
33.54
31.38
28.62
24.46
18.37
10.23
0.35
-10.90
-23.30
-36.65
-50.57
-64.37
-76.98
-87.18
-93.84
-96.08
-93.54
-86.58
-76.19
-63.89
-51.40
-40.17
-31.15
-24.57
-20.12
-17.20
-15.23
-13.82
-12.68
-11.65
-10.59
-9.50
-8.54
-7.94
-7.91
-8.43
-9.20
-9.68
-9.28
-7.54
-4.25
0.43
6.02
11.77
16.80
20.35
21.97
21.69
20.08
18.08
16.78
17.16
19.75
24.59
31.22
38.85
46.58
53.56
59.12
62.80
64.31
63.54
60.54
55.61
49.25
42.16
35.05
28.46
22.65
17.60
13.13
9.09
5.45
2.25
-0.55
-3.10
-5.71
-8.76
-12.51
-16.99
-22.08
-27.57
-33.36
-39.46
-45.90
-52.57
-59.05
-64.62
-68.52
-70.16
-69.40
-66.54
-62.15
-56.80
-50.88
-44.51
-37.73
-30.69
-23.74
-17.39
-12.14
-8.31
-5.96
-4.82
-4.48
-4.42
-4.14
-3.28
-1.64
0.72
3.47
6.12
8.11
9.04
8.75
7.42
5.42
3.19
1.03
-0.99
-3.04
-5.41
-8.40
-12.10
-16.38
-20.85
-24.90
-27.80
-28.87
-27.59
-23.75
-17.56
-9.63
-0.84
7.89
15.86
22.74
28.54
33.44
37.56
40.87
43.16
44.27
44.26
43.45
42.29
41.13
40.03
38.80
37.08
34.69
31.67
28.32
25.03
22.09
19.57
17.36
15.26
13.12
10.85
8.45
5.90
3.10
-0.07
-3.74
-7.86
-12.13
-16.01
-18.79
-19.80
-18.61
-15.15
-9.73
-2.90
4.62
12.22
19.34
25.61
30.79
34.77
37.57
39.24
39.87
39.48
38.08
35.74
32.61
28.98
25.22
21.67
18.54
15.88
13.55
11.39
9.23
7.02
4.78
2.57
0.42
-1.67
-3.76
-5.90
-8.10
-10.35
-12.69
-15.24
-18.17
-21.48
-24.87
-27.66
-28.95
-27.95
-24.31
-18.31
-10.79
-2.81
4.74
11.32
16.83
21.38
25.16
28.22
30.51
31.92
32.34
31.82
30.45
28.43
25.95
23.19
20.31
17.47
14.84
12.53
10.63
9.06
7.62
6.04
4.10
1.71
-0.99
-3.70
-6.10
-7.90
-9.08
-9.80
-10.44
-11.43
-13.06
-15.35
-17.98
-20.31
-21.54
-21.04
-18.44
-13.82
-7.65
-0.65
6.34
12.61
17.68
21.37
23.80
25.27
26.12
26.57
26.63
26.17
25.07
23.30
21.01
18.46
15.91
13.60
11.68
10.23
9.32
8.92
8.91
9.06
9.06
8.70
7.89
6.75
5.53
4.42
3.44
2.40
0.94
-1.35
-4.69
-8.98
-13.75
-18.31
-21.99
-24.42
-25.69
-26.26
-26.85
-28.12
-30.57
-34.45
-39.80
-46.45
-54.09
-62.18
-70.13
-77.33
-83.35
-87.97
-91.17
-93.00
-93.49
-92.63
-90.40
-86.88
-82.26
-76.81
-70.78
-64.28
-57.36
-49.96
-42.08
-33.78
-25.24
-16.71
-8.49
-0.94
5.54
10.49
13.51
14.32
12.93
9.72
5.46
1.18
-2.05
-3.35
-2.25
1.20
6.53
12.97
19.78
26.39
32.55
38.38
44.19
50.35
57.04
64.15
71.28
77.87
83.44
87.73
90.87
93.25
95.40
97.75
100.44
103.25
105.75
107.37
107.69
106.53
104.04
100.63
96.80
92.99
89.30
85.51
81.07
75.34
67.83
58.51
47.89
37.00
27.08
19.23
14.02
11.27
10.14
9.42
8.06
5.45
1.64
-2.85
-7.40
-11.60
-15.48
-19.42
-23.89
-29.15
-35.03
-40.97
-46.27
-50.36
-53.10
-54.73
-55.76
-56.62
-57.48
-58.22
-58.62
-58.57
-58.22
-57.92
-58.02
-58.73
-60.00
-61.67
-63.53
-65.37
-66.92
-67.71
-67.00
-64.00
-58.14
-49.31
-38.05
-25.41
-12.63
-0.87
9.13
16.99
22.69
26.43
28.48
29.16
28.76
27.60
26.01
24.30
22.71
21.36
20.20
19.08
17.78
16.08
13.91
11.34
8.55
5.71
2.93
0.23
-2.45
-5.31
-8.57
-12.36
-16.63
-21.01
-24.97
-27.85
-28.95
-27.87
-24.71
-20.14
-15.10
-10.43
-6.62
-3.85
-1.99
-0.49
1.08
2.81
4.23
4.78
4.12
2.35
-0.14
-2.77
-4.54
-4.64
-2.89
0.08
3.33
6.15
8.25
9.64
10.61
12.30
16.01
22.64
32.13
43.80
56.57
68.93
78.84
80.56
69.95
47.65
19.71
-6.48
-25.68
-35.89
-37.85
-34.22
-28.30
-22.41
-18.21
-15.44
-13.90
-13.36
-13.17
-12.57
-11.04
-8.55
-5.19
-1.60
1.08
1.56
-1.39
-7.83
-16.67
-26.27
-35.18
-42.21
-46.74
-48.70
-48.62
-47.25
-45.39
-44.04
-44.28
-46.93
-51.84
-57.85
-63.00
-65.25
-62.90
-54.94
-41.36
-23.15
-2.25
18.81
37.40
51.37
59.56
62.09
60.23
55.62
49.62
42.85
35.36
27.06
18.23
9.58
2.04
-3.70
-7.42
-9.40
-10.15
-10.06
-9.28
-7.65
-4.90
-0.86
4.43
10.62
17.08
23.05
27.90
31.36
33.56
34.91
35.93
37.03
38.50
40.47
43.06
46.28
49.96
53.74
57.11
59.61
61.01
61.34
60.81
59.61
57.78
55.26
52.04
48.21
44.06
39.91
36.00
32.36
28.80
25.01
20.72
15.83
10.40
4.70
-0.97
-6.34
-11.27
-15.78
-19.99
-23.95
-27.60
-30.84
-33.61
-36.17
-39.12
-43.25
-49.15
-56.82
-65.46
-73.64
-79.70
-82.40
-81.32
-76.93
-70.34
-62.74
-54.97
-47.29
-39.56
-31.46
-22.90
-14.10
-5.60
1.98
8.14
12.63
15.49
16.97
17.43
17.18
16.51
15.64
14.74
13.97
13.39
12.92
12.30
11.18
9.24
6.35
2.61
-1.70
-6.28
-10.93
-15.60
-20.26
-24.73
-28.68
-31.63
-33.17
-33.10
-31.48
-28.56
-24.64
-20.03
-14.91
-9.43
-3.74
2.06
7.87
13.64
19.28
24.66
29.52
33.50
36.22
37.48
37.27
35.91
33.87
31.63
29.47
27.41
25.23
22.69
19.66
16.23
12.63
9.10
5.74
2.41
-1.20
-5.40
-10.46
-16.43
-23.21
-30.52
-37.93
-44.85
-50.56
-54.36
-55.73
-54.56
-51.16
-46.21
-40.46
-34.58
-28.90
-23.55
-18.47
-13.64
-9.17
-5.25
-2.09
0.20
1.61
2.19
2.03
1.20
-0.27
-2.33
-4.86
-7.64
-10.44
-13.08
-15.58
-18.05
-20.66
-23.43
-26.17
-28.58
-30.43
-31.69
-32.64
-33.70
-35.25
-37.41
-39.95
-42.24
-43.41
-42.60
-39.21
-33.04
-24.47
-14.24
-3.23
7.80
18.38
28.30
37.48
45.76
52.95
58.81
63.17
65.96
67.10
66.48
64.02
59.80
54.24
48.01
41.83
36.24
31.40
27.21
23.57
20.53
18.27
16.85
15.95
14.77
12.22
7.39
-0.16
-10.25
-22.31
-35.60
-49.29
-62.34
-73.37
-80.70
-82.77
-78.69
-68.64
-53.98
-36.84
-19.41
-3.20
11.30
24.55
37.50
50.89
64.81
78.49
90.60
99.56
104.11
103.62
98.25
88.81
76.50
62.52
47.81
32.77
17.38
1.47
-14.75
-30.35
-43.65
-52.73
-56.10
-53.50
-45.98
-35.60
-24.71
-15.19
-7.96
-3.01
0.24
2.63
4.83
7.28
10.19
13.65
17.72
22.37
27.46
32.70
37.63
41.70
44.38
45.35
44.50
42.01
38.22
33.55
28.38
22.94
17.36
11.68
5.89
0.01
-5.88
-11.61
-16.96
-21.71
-25.71
-28.91
-31.39
-33.36
-35.10
-36.87
-39.01
-42.01
-46.63
-53.81
-64.41
-78.77
-96.27
-115.21
-133.15
-147.53
-156.56
-159.68
-157.68
-152.28
-145.50
-138.97
-133.64
-129.67
-126.64
-123.76
-120.21
-115.40
-109.13
-101.69
-93.84
-86.66
-81.25
-78.37
-78.16
-80.06
-83.00
-85.92
-88.15
-89.59
-90.63
-91.73
-93.12
-94.75
-96.55
-98.70
-101.77
-106.42
-112.77
-119.82
-125.29
-126.09
-119.27
-102.95
-76.93
-42.51
-2.05
41.73
86.15
128.69
166.93
198.51
221.35
234.04
236.13
228.32
212.28
190.41
165.52
140.64
118.76
102.44
93.28
91.49
95.76
103.69
112.58
120.22
125.20
126.78
124.56
118.10
107.21
92.45
75.69
60.20
49.91
48.02
55.62
70.87
89.12
104.23
110.50
104.52
86.27
59.05
28.22
-0.73
-23.87
-39.77
-49.25
-54.30
-56.74
-57.29
-55.46
-50.14
-40.61
-27.14
-11.19
5.10
19.52
30.36
36.82
39.04
38.02
35.27
32.36
30.49
30.13
30.97
32.08
32.35
31.00
27.89
23.62
19.25
15.95
14.60
15.61
18.86
23.83
29.91
36.48
43.02
49.18
55.03
61.46
70.27
83.48
102.12
124.94
148.02
165.82
173.20
167.50
149.54
122.96
92.51
62.13
33.95
8.53
-14.28
-34.60
-52.37
-67.51
-80.13
-90.35
-98.04
-102.78
-104.11
-102.02
-97.17
-91.03
-85.50
-82.38
-82.75
-86.85
-94.06
-102.83
-111.13
-116.64
-117.66
-113.55
-104.91
-93.09
-80.03
-67.42
-55.81
-44.23
-30.81
-14.02
6.34
28.78
51.26
71.18
86.32
95.96
101.17
104.10
106.61
109.58
112.94
117.27
122.59
128.19
133.08
136.53
138.04
137.07
133.22
126.54
118.92
111.68
104.48
96.00
85.09
71.21
54.32
34.97
5.65
-32.32
-69.83
-97.06
-110.67
-113.66
-111.19
-107.33
-103.94
-101.02
-96.64
-90.30
-83.98
-80.51
-81.51
-86.64
-93.99
-100.86
-104.44
-102.13
-92.08
-75.21
-54.41
-33.31
-15.42
-3.25
2.16
1.43
-2.95
-8.54
-14.49
-20.81
-27.66
-34.82
-41.69
-47.68
-52.63
-56.81
-59.42
-60.90
-61.66
-61.47
-59.54
-54.91
-47.01
-35.99
-22.71
-8.53
4.73
15.70
24.01
30.28
35.85
42.21
50.45
60.85
72.86
85.02
95.69
103.40
107.26
106.97
102.81
95.47
85.81
74.71
62.79
50.52
38.30
26.38
15.04
4.54
-4.94
-13.23
-20.23
-25.98
-30.67
-34.66
-38.61
-43.31
-49.30
-56.57
-64.26
-70.79
-74.33
-73.46
-67.67
-57.62
-44.82
-31.28
-18.96
-9.42
-3.60
-1.71
-3.10
-6.50
-10.23
-12.77
-13.20
-11.46
-8.32
-4.90
-2.22
-0.77
-0.54
-1.18
-2.33
-3.76
-5.41
-7.26
-9.16
-10.85
-12.02
-12.43
-12.11
-11.48
-11.24
-12.25
-15.16
-20.10
-26.47
-33.07
-38.41
-41.23
-40.82
-37.15
-30.67
-22.05
-12.01
-1.26
9.47
19.42
27.87
34.23
38.13
39.42
38.11
34.43
28.88
22.26
15.61
9.85
5.55
2.68
0.59
-1.73
-5.21
-10.33
-16.96
-24.49
-32.04
-38.92
-44.81
-49.90
-54.77
-60.27
-67.22
-76.11
-86.73
-97.95
-107.67
-113.32
-112.65
-104.65
-90.05
-71.11
-50.64
-30.77
-12.36
4.96
21.85
38.46
54.08
67.60
78.39
86.79
94.03
101.40
109.46
117.63
124.54
128.79
129.65
127.44
123.44
119.50
117.51
118.88
124.14
132.54
141.99
149.30
150.91
143.90
126.96
101.03
69.30
36.36
6.97
-15.29
-28.87
-34.36
-33.91
-30.19
-25.44
-20.99
-17.22
-13.99
-11.04
-8.25
-5.62
-3.30
-1.49
-0.48
-0.58
-2.11
-5.29
-10.08
-16.22
-23.35
-31.11
-39.35
-48.08
-57.32
-67.00
-76.73
-85.91
-93.85
-100.07
-104.41
-107.03
-108.29
-108.55
-108.13
-107.24
-106.04
-104.58
-102.71
-100.04
-95.92
-89.74
-81.17
-70.40
-58.14
-45.34
-32.74
-20.69
-9.16
1.92
12.51
22.26
30.70
37.49
42.62
46.57
50.09
53.87
58.26
63.13
67.96
71.94
74.24
74.24
71.88
67.72
62.68
57.67
53.24
49.32
45.15
39.50
31.18
19.93
6.43
-8.05
-22.23
-34.99
-45.54
-53.60
-59.48
-63.88
-66.88
-68.18
-67.73
-66.09
-64.02
-62.09
-60.57
-59.63
-59.21
-57.91
-53.97
-46.74
-37.43
-28.19
-20.68
-15.45
-11.94
-8.80
-2.94
8.84
28.09
54.07
85.21
120.14
157.47
194.76
218.75
215.94
182.84
129.95
73.04
24.12
-10.87
-31.19
-39.53
-40.13
-35.39
-26.12
-12.94
2.38
17.69
30.91
40.14
44.16
42.71
37.95
33.25
31.11
31.78
33.64
34.32
31.52
23.96
11.74
-3.16
-17.45
-28.63
-36.02
-40.31
-42.57
-44.10
-45.73
-47.67
-49.39
-50.17
-49.71
-48.12
-45.67
-42.64
-40.35
-39.84
-41.11
-42.58
-41.78
-36.41
-25.20
-8.39
12.28
33.00
50.47
63.28
71.72
76.02
75.38
68.35
53.88
32.52
5.05
-25.86
-56.21
-82.18
-102.47
-118.35
-132.13
-145.43
-147.86
-133.20
-104.24
-70.70
-41.07
-19.29
-5.67
1.30
3.84
3.83
0.65
-6.50
-18.51
-32.94
-46.80
-57.21
-61.73
-58.81
-48.38
-33.39
-17.43
-2.90
10.07
22.68
36.66
52.65
70.42
88.72
104.69
115.60
119.95
117.81
109.77
96.59
79.20
58.91
37.32
15.66
-5.09
-24.22
-41.23
-56.08
-68.96
-80.01
-89.21
-96.58
-102.31
-106.54
-109.08
-109.37
-106.78
-100.97
-92.04
-80.42
-66.73
-51.46
-34.93
-17.32
1.04
19.44
36.83
52.13
64.62
74.22
81.53
87.60
93.50
99.84
106.65
113.42
119.52
124.55
128.62
132.31
136.42
141.77
148.91
157.97
168.58
179.66
189.28
194.79
193.32
182.77
162.73
135.03
103.32
71.88
44.12
21.56
3.72
-11.14
-24.78
-38.14
-51.09
-62.93
-72.97
-80.95
-86.98
-91.27
-93.82
-94.53
-93.46
-91.19
-88.85
-87.84
-89.33
-93.90
-101.27
-110.41
-119.90
-128.22
-134.12
-136.87
-136.32
-132.98
-127.79
-121.89
-116.21
-111.26
-107.06
-103.36
-99.95
-96.88
-94.42
-92.78
-91.86
-91.01
-89.30
-85.79
-80.03
-72.22
-63.13
-53.77
-45.02
-37.39
-31.07
-26.03
-22.22
-19.65
-18.26
-17.79
-17.76
-17.45
-16.21
-13.59
-9.52
-4.21
2.03
9.09
17.15
26.64
37.98
51.31
66.26
81.99
97.44
111.51
123.38
132.64
139.28
143.69
146.44
148.13
149.05
148.99
147.22
142.80
135.10
124.17
110.90
96.68
82.87
70.28
59.03
48.76
39.00
29.55
20.56
12.37
5.21
-0.88
-6.10
-10.74
-15.01
-18.95
-22.40
-25.15
-27.06
-28.25
-29.11
-30.28
-32.35
-35.62
-40.01
-45.03
-50.09
-54.66
-58.37
-60.86
-61.64
-60.05
-55.44
-47.62
-37.06
-24.91
-12.67
-1.59
7.66
15.05
20.99
25.86
29.80
32.72
34.54
35.46
35.99
36.82
38.46
40.91
43.84
46.67
48.94
50.45
51.16
50.96
49.51
46.47
41.70
35.62
29.25
23.80
20.20
18.71
18.90
19.98
21.33
22.80
24.71
27.64
32.03
38.02
45.37
53.54
61.91
69.84
76.83
82.66
87.39
91.38
94.93
98.06
100.25
100.57
98.01
92.04
82.93
71.76
59.94
48.68
38.53
29.25
20.13
10.37
-0.59
-13.00
-26.84
-41.91
-57.82
-73.95
-89.59
-104.12
-117.35
-129.67
-141.94
-155.05
-169.34
-184.24
-198.29
-209.49
-215.96
-216.45
-210.72
-199.59
-184.64
-167.91
-151.37
-136.49
-123.91
-113.21
-103.15
-92.03
-78.32
-61.14
-40.65
-17.89
5.51
27.83
47.76
64.54
77.99
88.39
96.33
102.57
107.84
112.75
117.46
121.63
124.41
124.80
122.01
115.75
106.26
94.07
79.64
63.10
44.42
23.62
1.03
-22.61
-46.32
-69.14
-90.35
-109.42
-125.97
-139.65
-150.19
-157.61
-162.25
-164.65
-165.26
-164.22
-161.20
-155.67
-147.27
-136.17
-123.22
-109.67
-96.78
-85.38
-75.62
-67.03
-58.77
-50.01
-40.14
-28.90
-16.39
-3.05
10.50
23.45
35.02
44.55
51.71
56.56
59.54
61.28
62.35
63.07
63.44
63.16
61.77
58.85
54.23
48.27
41.79
36.05
32.38
31.74
34.45
40.06
47.64
56.09
64.63
73.04
81.65
91.14
102.16
114.94
129.17
144.01
158.33
171.09
181.58
189.55
195.00
198.07
198.87
197.53
194.21
189.26
183.06
175.97
168.23
159.89
150.88
141.09
130.41
118.76
106.19
92.84
79.07
65.34
52.15
39.79
28.00
15.81
1.67
-15.96
-37.98
-63.98
-92.20
-120.10
-145.40
-166.92
-185.00
-200.99
-216.26
-231.19
-244.79
-254.92
-259.19
-255.81
-244.17
-225.13
-200.76
-173.93
-147.66
-124.40
-105.40
-90.43
-78.03
-66.13
-52.88
-37.24
-19.17
0.65
21.15
41.16
59.49
75.02
86.71
93.94
96.66
95.54
91.74
86.64
81.32
76.35
71.73
67.11
62.10
56.53
50.56
44.54
38.86
33.59
28.40
22.48
14.88
4.86
-7.62
-21.72
-35.73
-47.52
-55.11
-57.30
-54.05
-46.43
-36.32
-25.78
-16.54
-9.56
-4.99
-2.38
-0.98
-0.09
0.79
1.83
3.01
4.16
5.18
6.08
7.16
8.91
12.00
16.92
23.66
31.41
38.44
42.44
41.27
33.66
19.74
1.16
-19.50
-39.50
-56.72
-70.04
-79.28
-84.77
-86.85
-85.66
-81.18
-73.54
-63.27
-51.30
-38.80
-26.77
-15.78
-5.89
3.16
11.55
19.15
25.35
29.31
30.30
27.96
22.58
14.95
6.20
-2.45
-9.93
-15.41
-18.32
-18.35
-15.40
-9.61
-1.40
8.47
18.98
28.99
37.40
43.46
46.81
47.49
45.76
41.92
36.20
28.83
20.20
11.05
2.34
-4.92
-10.08
-13.04
-14.25
-14.44
-14.24
-13.92
-13.45
-12.63
-11.42
-10.07
-9.12
-9.21
-10.75
-13.80
-17.90
-22.25
-25.98
-28.33
-28.90
-27.56
-24.53
-20.19
-15.03
-9.56
-4.27
0.35
3.93
6.33
7.76
8.55
8.91
8.82
7.99
6.10
2.98
-1.27
-6.37
-11.79
-17.20
-22.62
-28.22
-34.06
-39.86
-45.18
-49.62
-53.08
-55.27
-56.38
-57.17
-58.60
-61.20
-64.72
-68.25
-70.58
-70.69
-66.84
-58.23
-45.26
-28.94
-9.89
12.19
37.95
67.70
100.88
137.78
177.12
215.58
248.58
272.13
284.17
284.69
275.32
258.80
240.72
225.67
215.58
209.74
206.30
203.34
198.85
190.68
162.72
109.01
37.49
-34.53
-92.86
-132.75
-156.27
-167.60
-170.20
-166.17
-154.78
-136.83
-116.00
-97.54
-85.16
-79.12
-76.86
-75.33
-72.40
-65.77
-55.23
-42.58
-30.48
-20.76
-13.85
-9.39
-7.12
-6.83
-7.13
-7.01
-6.52
-6.78
-8.89
-13.25
-19.45
-26.58
-33.24
-37.58
-38.57
-36.58
-33.06
-29.59
-27.11
-25.75
-25.31
-25.27
-24.84
-23.58
-21.58
-19.50
-18.02
-17.31
-16.78
-15.55
-11.90
-3.90
9.27
26.41
44.56
60.36
71.48
77.47
78.26
75.30
71.10
67.95
66.93
67.93
70.11
71.80
70.36
60.23
37.17
0.53
-46.54
-98.56
-149.05
-191.86
-222.42
-238.88
-244.82
-244.37
-239.95
-232.44
-222.84
-212.34
-202.22
-193.67
-170.77
-129.79
-80.90
-38.30
-7.90
12.50
27.38
38.92
46.77
49.62
44.65
32.69
18.34
7.00
0.90
-0.82
-2.05
-5.86
-14.24
-29.42
-50.76
-74.36
-94.62
