1478929894.00
64.000000
-0.00
-0.00
-0.00
-0.00
-0.00
-0.00
-0.00
-0.00
-0.00
-0.00
0.00
0.01
0.01
-0.00
-0.03
-0.05
-0.05
0.00
0.13
0.36
0.66
1.01
1.37
1.72
2.06
2.40
2.79
3.24
3.80
4.42
5.06
5.66
6.20
6.68
7.15
7.68
8.31
9.14
10.09
11.04
11.88
12.56
13.14
13.76
14.65
15.96
17.91
20.32
22.90
25.38
27.58
29.57
31.68
34.32
37.81
42.54
48.15
54.10
59.83
64.97
69.58
74.14
79.34
85.71
93.76
103.00
112.62
121.73
129.77
136.75
143.30
150.75
157.77
166.64
177.95
191.79
206.97
220.57
228.25
225.36
208.53
176.87
132.76
80.05
23.07
-34.94
-92.44
-149.16
-205.23
-260.37
-313.74
-363.87
-409.83
-450.91
-486.50
-515.74
-537.23
-549.22
-549.96
-538.37
-514.21
-478.67
-433.88
-382.45
-327.02
-269.84
-212.63
-156.66
-102.95
-52.37
-5.90
35.58
71.43
101.35
125.50
144.38
158.70
169.15
176.37
180.75
182.57
182.06
179.50
175.24
169.67
163.21
156.17
148.80
141.24
133.55
125.80
118.04
110.36
102.82
95.48
88.36
81.49
74.86
68.49
62.40
56.64
51.22
46.15
41.42
36.98
32.78
28.80
25.06
21.60
18.46
15.70
13.30
11.18
9.25
7.38
5.52
3.71
2.04
0.67
-0.31
-0.92
-1.31
-1.73
-2.40
-3.42
-4.72
-6.05
-7.10
-7.68
-7.78
-7.63
-7.62
-8.11
-9.26
-10.92
-12.71
-14.18
-15.04
-15.24
-15.06
-14.86
-15.06
-15.94
-17.70
-20.44
-23.89
-27.30
-29.27
-28.18
-22.89
-13.36
-1.03
11.68
22.24
29.05
31.89
31.75
30.06
27.88
25.63
23.28
20.81
18.54
17.07
16.88
17.95
19.64
21.04
21.34
20.21
17.96
15.24
12.76
10.97
10.00
9.66
9.65
9.74
9.77
9.75
9.76
9.89
10.27
10.98
12.02
13.31
14.73
16.08
17.23
18.08
18.58
18.81
18.79
18.55
17.96
16.87
15.07
12.46
9.18
5.29
1.06
-3.18
-7.12
-10.45
-12.96
-14.55
-15.29
-15.39
-15.19
-14.91
-14.69
-14.50
-14.29
-14.01
-13.66
-13.35
-13.12
-12.94
-12.67
-12.16
-11.35
-10.34
-9.34
-8.55
-8.08
-7.85
-7.69
-7.38
-6.83
-6.07
-5.25
-4.52
-3.97
-3.58
-3.29
-3.03
-2.75
-2.47
-2.18
-1.88
-1.54
-1.09
-0.47
0.38
1.49
2.84
4.40
6.15
8.06
10.09
12.09
13.81
14.95
15.28
14.71
13.39
11.61
9.80
8.22
6.98
5.98
4.99
3.90
2.67
1.39
0.19
-0.79
-1.50
-1.98
-2.33
-2.62
-2.88
-3.09
-3.26
-3.42
-3.68
-4.14
-4.86
-5.79
-6.79
-7.69
-8.38
-8.79
-8.92
-8.81
-8.45
-7.82
-6.93
-5.83
-4.63
-3.45
-2.40
-1.50
-0.69
0.10
0.98
1.93
2.89
3.70
4.19
4.27
3.97
3.41
2.77
2.18
1.69
1.28
0.85
0.36
-0.20
-0.78
-1.34
-1.90
-2.52
-3.27
-4.19
-5.23
-6.22
-6.99
-7.32
-7.11
-6.34
-5.11
-3.59
-1.97
-0.45
0.85
1.84
2.50
2.87
3.05
3.11
3.14
3.14
3.06
2.84
2.40
1.74
0.94
0.12
-0.59
-1.09
-1.39
-1.55
-1.62
-1.64
-1.62
-1.57
-1.54
-1.65
-2.06
-2.84
-3.99
-5.35
-6.68
-7.82
-8.67
-9.31
-9.83
-10.26
-10.48
-10.29
-9.51
-8.12
-6.27
-4.27
-2.41
-0.85
0.40
1.43
2.32
3.07
3.63
3.96
4.04
3.91
3.67
3.37
3.08
2.77
2.45
2.05
1.56
0.92
0.09
-0.90
-1.99
-3.08
-4.12
-5.08
-6.08
-7.22
-8.57
-10.08
-11.54
-12.63
-13.06
-12.59
-11.18
-8.91
-5.97
-2.63
0.85
4.17
7.09
9.39
10.94
11.67
11.63
10.99
9.94
8.73
7.58
6.64
5.94
5.43
4.98
4.47
3.79
2.91
1.85
0.69
-0.44
-1.46
-2.30
-2.97
-3.56
-4.21
-5.03
-6.07
-7.25
-8.33
-9.02
-9.04
-8.18
-6.40
-3.82
-0.72
2.56
5.65
8.30
10.40
11.97
13.12
13.88
14.26
14.27
13.91
13.33
12.69
12.11
11.61
11.04
10.20
8.98
7.42
5.69
4.00
2.45
1.02
-0.39
-1.89
-3.49
-5.09
-6.58
-7.88
-9.02
-10.07
-11.06
-11.96
-12.60
-12.79
-12.29
-11.02
-9.04
-6.53
-3.80
-1.12
1.27
3.26
4.82
5.93
6.54
6.67
6.36
5.74
4.98
4.24
3.57
2.88
2.04
0.94
-0.35
-1.66
-2.76
-3.53
-4.00
-4.31
-4.65
-5.13
-5.78
-6.62
-7.69
-9.09
-10.88
-12.96
-14.99
-16.46
-16.86
-15.86
-13.45
-9.93
-5.82
-1.61
2.31
5.71
8.55
10.85
12.59
13.73
14.16
13.87
12.94
11.64
10.25
9.03
7.99
6.99
5.83
4.38
2.69
1.00
-0.47
-1.57
-2.37
-3.03
-3.77
-4.69
-5.84
-7.22
-8.83
-10.65
-12.56
-14.33
-15.56
-15.88
-15.02
-12.97
-9.90
-6.18
-2.18
1.76
5.36
8.41
10.79
12.43
13.29
13.48
13.10
12.30
11.23
9.98
8.65
7.30
5.98
4.73
3.56
2.44
1.35
0.24
-0.89
-2.04
-3.17
-4.27
-5.39
-6.60
-8.05
-9.78
-11.74
-13.73
-15.38
-16.30
-16.17
-14.87
-12.44
-9.13
-5.27
-1.21
2.71
6.24
9.18
11.44
12.98
13.81
13.98
13.60
12.83
11.85
10.80
9.78
8.79
7.76
6.59
5.25
3.77
2.27
0.86
-0.40
-1.50
-2.53
-3.57
-4.70
-5.95
-7.37
-9.02
-10.97
-13.23
-15.65
-17.88
-19.44
-19.83
-18.73
-16.13
-12.30
-7.75
-2.98
1.58
5.72
9.33
12.37
14.75
16.38
17.14
17.06
16.29
15.10
13.78
12.52
11.37
10.27
9.09
7.76
6.30
4.81
3.38
2.04
0.73
-0.65
-2.19
-3.90
-5.74
-7.64
-9.60
-11.69
-14.01
-16.56
-19.07
-21.04
-21.86
-21.01
-18.34
-14.13
-8.98
-3.56
1.61
6.27
10.37
13.94
16.94
19.21
20.60
20.99
20.44
19.11
17.26
15.12
12.95
10.95
9.27
7.92
6.81
5.74
4.50
3.00
1.31
-0.41
-1.99
-3.37
-4.65
-5.99
-7.55
-9.41
-11.57
-13.98
-16.56
-19.15
-21.43
-22.93
-23.17
-21.77
-18.69
-14.23
-8.92
-3.31
2.17
7.24
11.73
15.49
18.37
20.25
21.11
21.07
20.34
19.14
17.64
15.92
14.00
11.90
9.72
7.58
5.65
4.01
2.66
1.52
0.44
-0.74
-2.11
-3.67
-5.31
-6.95
-8.56
-10.25
-12.23
-14.71
-17.74
-21.14
-24.40
-26.93
-28.14
-27.67
-25.53
-22.00
-17.57
-12.76
-7.99
-3.60
0.18
3.15
5.14
6.03
5.82
4.60
2.59
0.07
-2.69
-5.49
-8.22
-10.85
-13.39
-15.79
-17.94
-19.63
-20.62
-20.72
-19.83
-17.96
-15.26
-11.89
-8.03
-3.87
0.40
4.52
8.21
11.18
13.17
14.03
13.76
12.55
10.76
8.91
7.61
7.34
8.40
10.74
14.04
17.84
21.68
25.21
28.22
30.54
32.09
32.77
32.58
31.61
30.03
28.03
25.78
23.41
21.01
18.68
16.51
14.56
12.81
11.17
9.54
7.87
6.22
4.64
3.20
1.84
0.43
-1.17
-3.02
-5.09
-7.24
-9.34
-11.34
-13.30
-15.28
-17.30
-19.20
-20.72
-21.47
-21.13
-19.48
-16.53
-12.48
-7.68
-2.57
2.43
6.94
10.72
13.60
15.48
16.37
16.36
15.62
14.44
13.10
11.86
10.84
9.99
9.16
8.18
6.97
5.57
4.12
2.81
1.76
0.96
0.32
-0.28
-0.98
-1.80
-2.76
-3.85
-5.11
-6.61
-8.40
-10.50
-12.81
-15.10
-17.08
-18.40
-18.71
-17.78
-15.54
-12.12
-7.83
-3.14
1.46
5.58
8.98
11.58
13.39
14.44
14.76
14.37
13.36
11.91
10.27
8.71
7.38
6.27
5.31
4.38
3.46
2.65
2.02
1.63
1.34
0.96
0.29
-0.72
-1.99
-3.32
-4.53
-5.55
-6.49
-7.54
-8.90
-10.68
-12.81
-15.06
-17.12
-18.58
-19.10
-18.36
-16.23
-12.81
-8.42
-3.55
1.21
5.38
8.62
10.85
12.14
12.65
12.59
12.10
11.30
10.28
9.18
8.09
7.09
6.18
5.32
4.43
3.45
2.37
1.27
0.24
-0.61
-1.24
-1.70
-2.13
-2.68
-3.49
-4.60
-5.99
-7.61
-9.42
-11.37
-13.33
-15.06
-16.17
-16.32
-15.23
-12.90
-9.57
-5.66
-1.61
2.21
5.54
8.23
10.19
11.39
11.85
11.61
10.81
9.61
8.20
6.81
5.63
4.79
4.32
4.07
3.83
3.37
2.55
1.41
0.09
-1.20
-2.31
-3.19
-3.91
-4.58
-5.35
-6.36
-7.72
-9.47
-11.54
-13.78
-15.92
-17.61
-18.51
-18.29
-16.78
-13.99
-10.16
-5.74
-1.26
2.82
6.21
8.84
10.82
12.27
13.26
13.79
13.80
13.30
12.37
11.19
9.99
8.92
8.03
7.28
6.55
5.76
4.87
3.88
2.82
1.71
0.55
-0.68
-1.95
-3.23
-4.48
-5.66
-6.82
-8.05
-9.49
-11.29
-13.49
-15.92
-18.22
-19.86
-20.24
-19.00
-16.08
-11.81
-6.82
-1.80
2.70
6.37
9.16
11.20
12.63
13.59
14.14
14.29
14.05
13.44
12.54
11.45
10.29
9.16
8.07
7.01
5.91
4.74
3.53
2.34
1.27
0.35
-0.40
-1.04
-1.62
-2.24
-3.01
-4.05
-5.48
-7.33
-9.61
-12.21
-14.91
-17.36
-19.10
-19.65
-18.61
-15.88
-11.69
-6.61
-1.39
3.25
6.88
9.41
10.99
11.89
12.27
12.21
11.71
10.86
9.86
8.96
8.31
7.90
7.55
6.99
6.07
4.84
3.53
2.36
1.49
0.88
0.34
-0.31
-1.18
-2.28
-3.56
-5.01
-6.68
-8.71
-11.18
-14.02
-16.92
-19.36
-20.73
-20.57
-18.70
-15.33
-10.94
-6.14
-1.52
2.56
5.88
8.41
10.19
11.34
11.95
12.15
12.04
11.65
10.98
10.04
8.84
7.49
6.15
4.97
4.04
3.36
2.86
2.44
2.03
1.58
1.00
0.24
-0.76
-2.00
-3.46
-5.10
-6.90
-8.88
-11.07
-13.45
-15.83
-17.85
-19.05
-19.01
-17.50
-14.57
-10.55
-5.93
-1.23
3.11
6.80
9.71
11.85
13.29
14.12
14.41
14.21
13.59
12.65
11.53
10.37
9.32
8.47
7.80
7.21
6.53
5.63
4.49
3.18
1.83
0.57
-0.52
-1.50
-2.49
-3.62
-5.02
-6.74
-8.74
-10.94
-13.19
-15.37
-17.29
-18.72
-19.35
-18.84
-16.96
-13.67
-9.23
-4.14
0.95
5.48
9.13
11.83
13.73
14.97
15.66
15.81
15.47
14.74
13.85
13.02
12.40
11.95
11.51
10.84
9.81
8.43
6.85
5.28
3.87
2.59
1.30
-0.17
-1.89
-3.78
-5.64
-7.29
-8.69
-10.03
-11.59
-13.55
-15.85
-18.10
-19.70
-20.09
-18.94
-16.25
-12.36
-7.77
-3.00
1.52
5.52
8.84
11.47
13.43
14.77
15.56
15.81
15.58
14.89
13.85
12.59
11.24
9.92
8.67
7.46
6.26
5.05
3.80
2.53
1.23
-0.08
-1.40
-2.71
-3.94
-5.10
-6.20
-7.40
-8.89
-10.84
-13.30
-16.05
-18.66
-20.56
-21.23
-20.38
-18.06
-14.60
-10.47
-6.17
-2.10
1.45
4.29
6.26
7.25
7.28
6.47
5.12
3.57
2.12
0.94
0.00
-0.81
-1.65
-2.63
-3.81
-5.19
-6.76
-8.52
-10.45
-12.54
-14.72
-16.94
-19.11
-21.22
-23.28
-25.38
-27.60
-30.00
-32.46
-34.67
-36.21
-36.60
-35.49
-32.78
-28.63
-23.37
-17.40
-11.06
-4.64
1.56
7.25
12.09
15.82
18.38
19.86
20.54
20.71
20.63
20.45
20.24
19.99
19.70
19.38
19.08
18.85
18.70
18.60
18.43
18.07
17.39
16.37
15.13
13.91
12.90
12.22
11.74
11.17
10.14
8.39
5.99
3.41
1.40
0.79
2.10
5.41
10.28
15.94
21.59
26.62
30.70
33.75
35.83
36.98
37.27
36.68
35.27
33.11
30.34
27.15
23.77
20.43
17.31
14.48
11.91
9.49
7.11
4.77
2.53
0.53
-1.09
-2.27
-3.05
-3.58
-4.04
-4.60
-5.36
-6.30
-7.32
-8.30
-9.13
-9.83
-10.50
-11.35
-12.50
-14.02
-15.80
-17.65
-19.30
-20.49
-20.97
-20.50
-18.91
-16.18
-12.43
-8.01
-3.40
0.88
4.43
7.00
8.54
9.16
9.01
8.31
7.28
6.14
5.08
4.25
3.67
3.28
2.93
2.50
1.93
1.23
0.50
-0.18
-0.76
-1.28
-1.84
-2.58
-3.55
-4.77
-6.17
-7.64
-9.10
-10.50
-11.83
-13.11
-14.34
-15.43
-16.18
-16.34
-15.65
-13.93
-11.18
-7.65
-3.73
0.07
3.32
5.76
7.35
8.24
8.65
8.71
8.49
7.96
7.11
5.96
4.68
3.48
2.54
1.97
1.74
1.69
1.61
1.31
0.66
-0.33
-1.56
-2.91
-4.24
-5.53
-6.81
-8.14
-9.57
-11.08
-12.60
-14.02
-15.23
-16.11
-16.48
-16.13
-14.82
-12.40
-8.94
-4.76
-0.36
3.67
6.88
9.08
10.32
10.83
10.88
10.65
10.18
9.44
8.41
7.17
5.92
4.87
4.17
3.76
3.44
2.91
1.97
0.61
-0.98
-2.50
-3.72
-4.53
-5.01
-5.40
-5.95
-6.89
-8.33
-10.24
-12.44
-14.62
-16.37
-17.27
-16.99
-15.38
-12.49
-8.57
-4.04
0.62
4.94
8.54
11.23
12.97
13.83
13.92
13.41
12.43
11.19
9.87
8.65
7.64
6.78
5.95
4.96
3.69
2.15
0.46
-1.18
-2.61
-3.71
-4.48
-4.98
-5.33
-5.68
-6.17
-6.90
-7.96
-9.37
-11.06
-12.84
-14.39
-15.27
-15.06
-13.51
-10.59
-6.62
-2.11
2.36
6.34
9.53
11.86
13.32
13.99
13.94
13.25
12.11
10.73
9.37
8.18
7.26
6.51
5.81
4.98
3.89
2.54
1.01
-0.55
-1.96
-3.16
-4.13
-4.94
-5.68
-6.47
-7.43
-8.71
-10.42
-12.60
-15.08
-17.48
-19.25
-19.82
-18.85
-16.35
-12.62
-8.19
-3.58
0.80
4.72
8.04
10.66
12.50
13.52
13.73
13.31
12.50
11.54
10.63
9.82
9.07
8.27
7.32
6.18
4.85
3.40
1.94
0.57
-0.64
-1.65
-2.47
-3.20
-3.96
-4.96
-6.35
-8.23
-10.54
-13.15
-15.76
-18.01
-19.46
-19.75
-18.62
-16.04
-12.25
-7.63
-2.68
2.15
6.49
10.09
12.79
14.54
15.38
15.42
14.84
13.85
12.63
11.35
10.14
9.09
8.25
7.58
6.95
6.18
5.14
3.79
2.25
0.71
-0.70
-1.94
-3.09
-4.30
-5.71
-7.40
-9.40
-11.71
-14.28
-17.00
-19.63
-21.77
-22.92
-22.61
-20.60
-16.96
-12.09
-6.59
-1.11
3.88
8.11
11.53
14.22
16.26
17.68
18.47
18.64
18.19
17.21
15.84
14.25
12.63
11.16
9.96
9.03
8.26
7.49
6.58
5.43
4.04
2.49
0.85
-0.81
-2.43
-3.98
-5.42
-6.79
-8.15
-9.68
-11.61
-14.08
-17.09
-20.34
-23.31
-25.33
-25.82
-24.46
-21.28
-16.66
-11.13
-5.28
0.44
5.66
10.17
13.77
16.40
18.01
18.70
18.66
18.10
17.26
16.30
15.32
14.36
13.43
12.52
11.61
10.70
9.74
8.69
7.53
6.20
4.65
2.91
1.02
-0.93
-2.81
-4.54
-6.11
-7.52
-8.89
-10.31
-11.94
-13.90
-16.27
-19.00
-21.83
-24.25
-25.63
-25.37
-23.16
-19.11
-13.74
-7.72
-1.72
3.79
8.62
12.69
15.99
18.46
20.04
20.75
20.72
20.18
19.35
18.38
17.31
16.07
14.59
12.85
10.93
8.95
7.10
5.55
4.38
3.59
3.06
2.54
1.80
0.62
-1.02
-2.99
-5.05
-6.94
-8.50
-9.75
-10.86
-12.07
-13.60
-15.57
-17.88
-20.23
-22.16
-23.12
-22.62
-20.45
-16.69
-11.74
-6.20
-0.68
4.33
8.58
11.98
14.59
16.46
17.64
18.14
18.01
17.39
16.45
15.39
14.33
13.33
12.33
11.26
10.09
8.87
7.74
6.81
6.11
5.60
5.14
4.60
3.92
3.04
1.97
0.71
-0.77
-2.46
-4.29
-6.19
-8.05
-9.81
-11.51
-13.28
-15.27
-17.60
-20.20
-22.80
-24.93
-26.02
-25.59
-23.44
-19.73
-14.91
-9.58
-4.26
0.71
5.14
8.92
11.91
13.97
15.04
15.24
14.86
14.26
13.73
13.36
13.11
12.84
12.41
11.73
10.81
9.67
8.42
7.11
5.83
4.62
3.43
2.21
0.90
-0.49
-1.89
-3.18
-4.29
-5.26
-6.19
-7.25
-8.60
-10.33
-12.47
-14.94
-17.57
-20.00
-21.77
-22.38
-21.49
-18.99
-15.07
-10.17
-4.82
0.49
5.35
9.47
12.61
14.66
15.57
15.47
14.67
13.53
12.40
11.47
10.78
10.20
9.57
8.79
7.89
6.98
6.22
5.69
5.37
5.14
4.82
4.30
3.50
2.45
1.17
-0.30
-1.92
-3.64
-5.39
-7.09
-8.68
-10.22
-11.87
-13.80
-16.07
-18.49
-20.64
-21.93
-21.82
-20.05
-16.73
-12.29
-7.34
-2.45
2.03
5.97
9.32
12.05
14.05
15.19
15.51
15.19
14.59
14.03
13.62
13.21
12.57
11.51
10.08
8.55
7.25
6.39
5.94
5.65
5.18
4.29
2.95
1.28
-0.46
-2.07
-3.44
-4.60
-5.69
-6.86
-8.22
-9.78
-11.50
-13.37
-15.39
-17.55
-19.73
-21.55
-22.48
-21.99
-19.80
-15.98
-10.98
-5.47
-0.09
4.69
8.61
11.58
13.62
14.80
15.25
15.18
14.76
14.19
13.53
12.83
12.06
11.19
10.21
9.12
7.94
6.69
5.47
4.36
3.42
2.64
1.89
1.04
-0.03
-1.30
-2.68
-4.03
-5.26
-6.38
-7.53
-8.88
-10.60
-12.76
-15.28
-17.91
-20.22
-21.66
-21.75
-20.22
-17.14
-12.89
-8.03
-3.14
1.38
5.31
8.57
11.17
13.08
14.33
14.97
15.16
15.08
14.88
14.59
14.12
13.32
12.14
10.66
9.11
7.75
6.76
6.14
5.74
5.31
4.62
3.55
2.10
0.35
-1.53
-3.40
-5.13
-6.69
-8.14
-9.68
-11.53
-13.82
-16.45
-19.02
-20.94
-21.61
-20.62
-17.99
-14.06
-9.38
-4.54
-0.00
3.94
7.12
9.45
10.94
11.67
11.83
11.67
11.45
11.30
11.20
11.03
10.61
9.87
8.87
7.76
6.73
5.87
5.15
4.43
3.60
2.59
1.44
0.25
-0.89
-1.98
-3.10
-4.36
-5.86
-7.63
-9.61
-11.74
-13.98
-16.29
-18.51
-20.42
-21.62
-21.72
-20.42
-17.67
-13.70
-8.93
-3.81
1.24
5.97
10.18
13.71
16.41
18.18
19.01
19.06
18.55
17.74
16.82
15.89
15.02
14.23
13.54
12.94
12.35
11.68
10.88
9.91
8.84
7.71
6.47
5.03
3.25
1.08
-1.39
-3.90
-6.20
-8.18
-9.97
-11.89
-14.26
-17.22
-20.55
-23.71
-25.97
-26.72
-25.57
-22.54
-18.00
-12.57
-6.88
-1.53
3.13
6.94
9.93
12.21
13.92
15.13
15.84
16.04
15.77
15.11
14.21
13.24
12.31
11.43
10.54
9.56
8.48
7.34
6.22
5.19
4.27
3.41
2.51
1.51
0.37
-0.89
-2.22
-3.61
-5.12
-6.82
-8.81
-11.11
-13.66
-16.31
-18.82
-20.87
-22.08
-22.13
-20.73
-17.85
-13.68
-8.65
-3.39
1.54
5.68
8.84
10.98
12.24
12.79
12.84
12.56
12.08
11.51
10.88
10.13
9.22
8.11
6.88
5.66
4.58
3.72
3.01
2.32
1.50
0.48
-0.73
-2.02
-3.26
-4.37
-5.36
-6.35
-7.50
-8.98
-10.91
-13.29
-15.97
-18.67
-20.96
-22.35
-22.34
-20.64
-17.22
-12.37
-6.73
-0.99
4.18
8.36
11.41
13.36
14.34
14.46
13.79
12.53
10.93
9.36
8.15
7.46
7.21
7.14
6.93
6.37
5.39
4.13
2.77
1.46
0.24
-0.87
-1.84
-2.61
-3.04
-3.07
-2.75
-2.35
-2.26
-2.90
-4.55
-7.27
-10.85
-14.86
-18.83
-22.22
-24.56
-25.44
-24.58
-21.90
-17.62
-12.24
-6.42
-0.84
3.99
7.82
10.65
12.65
14.02
14.89
15.34
15.39
15.06
14.42
13.55
12.56
11.57
10.67
9.90
9.23
8.55
7.72
6.61
5.16
3.44
1.58
-0.22
-1.79
-3.06
-4.08
-5.01
-6.08
-7.52
-9.44
-11.81
-14.34
-16.60
-18.05
-18.24
-16.96
-14.24
-10.39
-5.83
-1.04
3.57
7.70
11.15
13.80
15.63
16.65
16.94
16.58
15.65
14.33
12.81
11.33
10.10
9.19
8.51
7.86
7.05
6.03
4.91
3.89
3.08
2.46
1.87
1.11
0.10
-1.13
-2.51
-3.99
-5.67
-7.68
-10.05
-12.63
-15.03
-16.72
-17.30
-16.55
-14.53
-11.50
-7.81
-3.81
0.19
3.92
7.16
9.79
11.77
13.15
14.00
14.41
14.47
14.20
13.64
12.82
11.80
10.64
9.45
8.32
7.33
6.44
5.57
4.58
3.37
1.92
0.34
-1.26
-2.80
-4.29
-5.84
-7.57
-9.55
-11.74
-14.02
-16.24
-18.20
-19.68
-20.37
-19.96
-18.18
-15.00
-10.63
-5.61
-0.58
3.85
7.29
9.67
11.18
12.11
12.75
13.22
13.52
13.52
13.12
12.28
11.10
9.75
8.45
7.35
6.51
5.90
5.43
4.95
4.29
3.30
1.92
0.19
-1.74
-3.67
-5.46
-7.05
-8.52
-10.04
-11.76
-13.79
-16.09
-18.51
-20.75
-22.42
-23.10
-22.44
-20.25
-16.62
-11.91
-6.65
-1.40
3.35
7.30
10.34
12.49
13.84
14.53
14.70
14.49
14.01
13.34
12.52
11.55
10.44
9.22
7.97
6.83
5.93
5.34
5.03
4.85
4.52
3.81
2.58
0.89
-1.03
-2.91
-4.59
-6.04
-7.43
-8.98
-10.88
-13.21
-15.88
-18.69
-21.33
-23.40
-24.49
-24.26
-22.52
-19.38
-15.20
-10.53
-5.93
-1.84
1.51
4.05
5.78
6.77
7.06
6.75
5.97
4.87
3.57
2.15
0.64
-0.96
-2.66
-4.43
-6.26
-8.10
-9.93
-11.76
-13.61
-15.54
-17.61
-19.86
-22.28
-24.70
-26.85
-28.40
-29.05
-28.69
-27.42
-25.49
-23.16
-20.62
-17.82
-14.55
-10.52
-5.56
0.31
6.83
13.52
19.89
25.50
30.10
33.59
36.02
37.48
38.07
37.87
36.94
35.41
33.44
31.29
29.14
27.16
25.37
23.70
22.04
20.35
18.68
17.07
15.57
14.09
12.48
10.62
8.43
6.02
3.54
1.18
-0.94
-2.82
-4.54
-6.19
-7.91
-9.86
-12.19
-15.00
-18.23
-21.52
-24.27
-25.77
-25.48
-23.23
-19.35
-14.45
-9.24
-4.21
0.40
4.53
8.13
11.07
13.14
14.23
14.40
13.96
13.33
12.82
12.56
12.48
12.39
12.11
11.58
10.83
9.93
8.93
7.87
6.76
5.61
4.46
3.34
2.27
1.25
0.25
-0.75
-1.81
-3.00
-4.43
-6.28
-8.69
-11.69
-15.10
-18.49
-21.22
-22.68
-22.43
-20.36
-16.72
-11.98
-6.74
-1.51
3.34
7.56
11.02
13.64
15.41
16.35
16.58
16.28
15.67
14.91
14.10
13.21
12.18
10.97
9.63
8.25
6.96
5.80
4.70
3.53
2.14
0.52
-1.26
-3.05
-4.70
-6.15
-7.44
-8.72
-10.22
-12.16
-14.74
-17.91
-21.35
-24.37
-26.16
-26.02
-23.63
-19.24
-13.53
-7.33
-1.35
4.04
8.74
12.79
16.18
18.78
20.46
21.19
21.15
20.66
20.09
19.62
19.26
18.82
18.05
16.87
15.37
13.78
12.35
11.20
10.24
9.25
7.98
6.30
4.26
2.05
-0.12
-2.11
-3.90
-5.55
-7.14
-8.74
-10.41
-12.25
-14.37
-16.90
-19.80
-22.80
-25.39
-26.94
-26.96
-25.24
-22.00
-17.78
-13.26
-9.01
-5.39
-2.54
-0.50
0.74
1.16
0.80
-0.22
-1.69
-3.36
-5.01
-6.55
-8.04
-9.64
-11.50
-13.66
-15.97
-18.16
-19.91
-20.95
-21.22
-20.93
-20.46
-20.21
-20.53
-21.55
-23.23
-25.51
-28.27
-31.37
-34.48
-37.07
-38.42
-37.80
-34.73
-29.12
-21.32
-11.95
-1.75
8.65
18.68
27.89
35.84
42.19
46.77
49.64
51.12
51.60
51.48
51.02
50.31
49.35
48.09
46.49
44.58
42.47
40.24
38.02
35.87
33.75
31.58
29.25
26.61
23.63
20.32
16.79
13.22
9.84
6.82
4.27
2.07
-0.05
-2.54
-5.78
-9.94
-14.83
-19.86
-24.24
-27.14
-27.97
-26.51
-22.99
-17.99
-12.30
-6.73
-1.90
1.87
4.58
6.44
7.73
8.65
9.27
9.60
9.63
9.40
9.02
8.59
8.17
7.79
7.41
7.00
6.52
5.93
5.16
4.15
2.86
1.29
-0.47
-2.30
-4.04
-5.57
-6.90
-8.12
-9.47
-11.23
-13.61
-16.62
-19.96
-23.04
-25.07
-25.38
-23.62
-19.91
-14.79
-9.04
-3.41
1.61
5.82
9.25
11.97
14.03
15.32
15.75
15.30
14.11
12.50
10.85
9.47
8.54
8.02
7.74
7.49
7.05
6.30
5.19
3.74
2.00
0.05
-2.05
-4.24
-6.46
-8.63
-10.69
-12.63
-14.53
-16.52
-18.72
-21.08
-23.30
-24.81
-24.95
-23.24
-19.60
-14.44
-8.53
-2.70
2.36
6.32
9.16
11.06
12.25
12.89
13.04
12.74
11.99
10.85
9.43
7.88
6.38
5.07
3.98
3.07
2.22
1.28
0.18
-1.07
-2.41
-3.76
-5.13
-6.57
-8.19
-10.09
-12.27
-14.72
-17.41
-20.31
-23.36
-26.34
-28.81
-30.14
-29.66
-26.97
-22.09
-15.58
-8.28
-1.11
5.27
10.53
14.63
17.66
19.72
20.84
21.08
20.58
19.58
18.38
17.19
16.10
15.04
13.85
12.40
10.62
8.56
6.37
4.23
2.33
0.77
-0.45
-1.45
-2.38
-3.44
-4.76
-6.44
-8.50
-10.92
-13.57
-16.23
-18.51
-19.93
-20.00
-18.40
-15.11
-10.40
-4.83
0.97
6.40
11.06
14.74
17.42
19.17
20.11
20.32
19.84
18.69
16.97
14.83
12.52
10.29
8.34
6.68
5.22
3.77
2.19
0.46
-1.32
-3.02
-4.53
-5.88
-7.20
-8.63
-10.29
-12.23
-14.44
-16.91
-19.63
-22.54
-25.47
-28.10
-29.95
-30.53
-29.49
-26.73
-22.50
-17.30
-11.74
-6.32
-1.34
3.09
6.98
10.33
13.09
15.15
16.39
16.82
16.58
15.92
15.12
14.37
13.74
13.17
12.50
11.61
10.43
8.98
7.37
5.72
4.17
2.78
1.47
0.05
-1.74
-4.16
-7.28
-10.93
-14.60
-17.60
-19.22
-19.01
-16.87
-13.09
-8.17
-2.68
2.87
8.10
12.75
16.61
19.59
21.64
22.82
23.21
22.94
22.15
20.95
19.44
17.67
15.73
13.69
11.67
9.80
8.17
6.82
5.65
4.49
3.16
1.56
-0.29
-2.32
-4.46
-6.76
-9.36
-12.44
-16.08
-20.18
-24.42
-28.24
-31.01
-32.14
-31.27
-28.40
-23.90
-18.35
-12.39
-6.57
-1.20
3.53
7.49
10.58
12.70
13.86
14.19
13.92
13.32
12.57
11.73
10.80
9.67
8.30
6.72
4.98
3.20
1.46
-0.21
-1.84
-3.51
-5.33
-7.35
-9.54
-11.80
-14.03
-16.16
-18.17
-19.99
-21.46
-22.24
-21.99
-20.42
-17.45
-13.26
-8.17
-2.60
3.07
8.55
13.52
17.67
20.72
22.47
22.98
22.46
21.30
19.86
18.40
17.02
15.74
14.47
13.11
11.56
9.72
7.57
5.15
2.62
0.15
-2.14
-4.22
-6.22
-8.33
-10.78
-13.75
-17.25
-21.14
-25.04
-28.42
-30.60
-30.99
-29.13
-24.97
-18.81
-11.31
-3.31
4.41
11.23
16.83
21.13
24.20
26.15
27.06
26.97
25.99
24.34
22.31
20.24
18.33
16.61
14.91
13.05
10.95
8.66
6.37
4.24
2.33
0.58
-1.20
-3.14
-5.35
-7.83
-10.54
-13.48
-16.68
-20.16
-23.81
-27.27
-29.99
-31.26
-30.48
-27.34
-21.99
-15.00
-7.21
0.56
7.70
13.89
19.05
23.15
26.17
28.06
28.75
28.32
26.97
25.03
22.82
20.62
18.52
16.49
14.46
12.38
10.24
8.09
5.97
3.91
1.90
-0.09
-2.10
-4.16
-6.29
-8.51
-10.85
-13.34
-16.10
-19.25
-22.90
-26.95
-30.99
-34.24
-35.82
-34.96
-31.40
-25.43
-17.82
-9.53
-1.42
5.95
12.32
17.55
21.57
24.30
25.74
25.99
25.31
24.04
22.49
20.86
19.23
17.58
15.86
14.04
12.11
10.10
8.09
6.11
4.21
2.37
0.53
-1.42
-3.55
-5.89
-8.40
-10.93
-13.39
-15.80
-18.33
-21.20
-24.54
-28.10
-31.31
-33.33
-33.37
-31.02
-26.32
-19.78
-12.13
-4.14
3.54
10.39
16.02
20.15
22.67
23.72
23.66
22.99
22.13
21.33
20.58
19.71
18.51
16.92
15.03
13.06
11.26
9.73
8.43
7.16
5.68
3.86
1.67
-0.71
-3.03
-5.10
-6.85
-8.40
-9.97
-11.84
-14.19
-17.12
-20.56
-24.26
-27.77
-30.46
-31.72
-31.04
-28.28
-23.64
-17.62
-10.83
-3.83
2.95
9.22
14.73
19.21
22.47
24.42
25.19
25.07
24.36
23.29
21.95
20.33
18.43
16.36
14.29
12.43
10.85
9.51
8.25
6.86
5.20
3.29
1.22
-0.87
-2.90
-4.87
-6.87
-8.96
-11.18
-13.48
-15.85
-18.30
-20.85
-23.44
-25.80
-27.43
-27.68
-26.00
-22.21
-16.60
-9.90
-2.99
3.35
8.69
12.95
16.23
18.68
20.36
21.26
21.30
20.53
19.06
17.14
15.07
13.14
11.51
10.20
9.07
7.90
6.51
4.81
2.87
0.84
-1.09
-2.81
-4.32
-5.68
-6.96
-8.28
-9.69
-11.38
-13.49
-16.19
-19.44
-22.97
-26.21
-28.44
-28.95
-27.34
-23.59
-18.16
-11.77
-5.21
0.92
6.26
10.71
14.28
17.00
18.86
19.83
19.90
19.17
17.82
16.09
14.24
12.46
10.88
9.52
8.34
7.23
6.07
4.80
3.42
2.00
0.62
-0.71
-2.03
-3.44
-4.99
-6.66
-8.39
-10.15
-11.99
-14.11
-16.65
-19.60
-22.57
-24.84
-25.54
-24.01
-20.13
-14.40
-7.74
-1.19
4.46
8.87
12.12
14.45
16.11
17.18
17.62
17.37
16.48
15.13
13.60
12.10
10.76
9.56
8.39
7.15
5.81
4.39
3.00
1.70
0.48
-0.74
-2.08
-3.63
-5.36
-7.20
-9.05
-10.90
-12.86
-15.16
-17.94
-21.10
-24.16
-26.39
-26.97
-25.39
-21.64
-16.27
-10.14
-4.13
1.14
5.44
8.83
11.48
13.48
14.80
15.35
15.08
14.10
12.67
11.11
9.66
8.40
7.27
6.11
4.83
3.43
2.05
0.85
-0.12
-0.92
-1.75
-2.80
-4.24
-6.05
-8.17
-10.48
-12.96
-15.66
-18.65
-21.90
-25.12
-27.76
-29.08
-28.46
-25.59
-20.67
-14.33
-7.43
-0.78
5.08
9.95
13.84
16.87
19.08
20.43
20.90
20.53
19.49
18.09
16.58
15.16
13.88
12.63
11.27
9.68
7.86
5.88
3.87
1.93
0.11
-1.65
-3.39
-5.18
-7.05
-9.04
-11.21
-13.67
-16.59
-20.05
-23.94
-27.79
-30.82
-32.18
-31.23
-27.82
-22.37
-15.70
-8.68
-1.98
4.04
9.26
13.65
17.10
19.46
20.60
20.53
19.49
17.79
15.78
13.69
11.64
9.63
7.63
5.58
3.40
1.07
-1.45
-4.17
-7.08
-10.11
-13.19
-16.16
-18.87
-21.21
-23.15
-24.84
-26.60
-28.81
-31.74
-35.38
-39.26
-42.49
-44.01
-42.87
-38.60
-31.40
-22.05
-11.71
-1.51
7.68
15.40
21.50
26.06
29.18
31.00
31.65
31.39
30.52
29.40
28.27
27.19
26.06
24.68
22.98
20.99
18.95
17.08
15.53
14.22
12.91
11.28
9.16
6.57
3.72
0.91
-1.67
-4.01
-6.32
-8.91
-12.10
-16.09
-20.81
-25.84
-30.41
-33.51
-34.19
-31.86
-26.55
-18.89
-9.94
-0.81
7.64
14.93
20.91
25.61
29.09
31.40
32.63
32.94
32.56
31.70
30.53
29.10
27.42
25.51
23.44
21.33
19.35
17.60
16.14
14.90
13.73
12.42
10.78
8.66
6.08
3.15
0.09
-2.91
-5.68
-8.20
-10.58
-13.04
-15.89
-19.38
-23.64
-28.51
-33.45
-37.58
-39.84
-39.39
-35.85
-29.53
-21.28
-12.25
-3.52
4.21
10.67
15.85
19.86
22.76
24.55
25.30
25.18
24.46
23.46
22.44
21.48
20.57
19.63
18.56
17.34
16.01
14.65
13.36
12.19
11.08
9.89
8.39
6.41
3.93
1.13
-1.64
-4.09
-6.10
-7.82
-9.69
-12.18
-15.65
-20.10
-25.09
-29.82
-33.32
-34.73
-33.48
-29.49
-23.21
-15.41
-7.03
1.10
8.33
14.32
18.92
22.13
24.02
24.79
24.66
23.94
22.91
21.80
20.67
19.48
18.08
16.38
14.37
12.18
10.07
8.27
6.91
5.92
5.05
3.94
2.29
-0.01
-2.79
-5.72
-8.41
-10.58
-12.27
-13.74
-15.42
-17.75
-21.00
-25.22
-30.11
-35.04
-39.07
-41.12
-40.34
-36.37
-29.60
-21.08
-12.15
-3.97
2.88
8.41
13.00
16.98
20.40
23.00
24.48
24.74
24.04
22.86
21.70
20.80
20.11
19.40
18.45
17.18
15.74
14.34
13.18
12.32
11.59
10.73
9.46
7.56
5.03
2.08
-0.94
-3.66
-5.84
-7.51
-8.99
-10.78
-13.41
-17.22
-22.18
-27.81
-33.21
-37.26
-38.87
-37.37
-32.67
-25.35
-16.44
-7.14
1.63
9.29
15.66
20.78
24.71
27.43
28.93
29.28
28.77
27.81
26.82
26.04
25.47
24.89
24.04
22.78
21.14
19.36
17.68
16.26
15.09
13.96
12.59
10.79
8.44
5.60
2.43
-0.85
-4.02
-6.91
-9.43
-11.62
-13.69
-15.96
-18.81
-22.47
-26.90
-31.61
-35.79
-38.40
-38.52
-35.66
-29.93
-22.05
-13.12
-4.27
3.62
10.12
15.14
18.78
21.18
22.41
22.56
21.79
20.41
18.75
17.13
15.66
14.33
13.02
11.66
10.28
8.97
7.81
6.78
5.74
4.51
2.92
0.96
-1.27
-3.57
-5.76
-7.72
-9.53
-11.40
-13.69
-16.68
-20.49
-24.89
-29.30
-32.87
-34.69
-34.08
-30.80
-25.11
-17.72
-9.60
-1.70
5.24
10.78
14.82
17.46
18.93
19.49
19.40
18.86
18.07
17.15
16.18
15.18
14.15
13.13
12.14
11.22
10.36
9.46
8.40
7.00
5.19
3.00
0.64
-1.66
-3.72
-5.54
-7.27
-9.20
-11.59
-14.62
-18.30
-22.47
-26.76
-30.58
-33.20
-33.83
-31.86
-27.15
-20.14
-11.81
-3.36
4.13
10.07
14.35
17.23
19.12
20.31
20.91
20.94
20.40
19.33
17.87
16.17
14.43
12.79
11.30
10.01
8.88
7.84
6.77
5.52
3.92
1.88
-0.61
-3.46
-6.48
-9.54
-12.55
-15.56
-18.69
-22.14
-26.09
-30.67
-35.79
-41.06
-45.72
-48.78
-49.33
-46.87
-41.60
-34.39
-26.49
-19.14
-13.16
-8.84
-6.03
-4.38
-3.57
-3.36
-3.58
-4.05
-4.48
-4.60
-4.13
-2.89
-0.81
2.09
5.69
9.80
14.14
18.38
22.21
25.34
27.59
28.90
29.29
28.77
27.39
25.19
22.25
18.71
14.72
10.35
5.60
0.45
-4.90
-9.93
-13.78
-15.47
-14.39
-10.52
-4.61
2.15
8.53
13.72
17.50
20.17
22.15
23.72
24.84
25.30
24.90
23.64
21.80
19.78
17.95
16.48
15.31
14.24
13.04
11.59
9.94
8.21
6.52
4.90
3.26
1.45
-0.65
-3.05
-5.63
-8.24
-10.76
-13.23
-15.86
-18.91
-22.49
-26.34
-29.76
-31.77
-31.50
-28.49
-22.95
-15.76
-8.10
-1.01
4.88
9.44
12.91
15.55
17.46
18.54
18.69
17.92
16.49
14.81
13.27
12.06
11.13
10.26
9.22
7.93
6.50
5.11
3.94
2.99
2.12
1.07
-0.39
-2.35
-4.77
-7.43
-10.18
-12.97
-15.94
-19.27
-23.02
-26.86
-30.06
-31.69
-31.00
-27.73
-22.29
-15.58
-8.59
-2.12
3.47
8.20
12.18
15.50
18.11
19.89
20.77
20.81
20.19
19.12
17.82
16.42
15.05
13.75
12.53
11.33
10.05
8.62
7.04
5.38
3.72
2.08
0.42
-1.35
-3.33
-5.52
-7.90
-10.49
-13.40
-16.80
-20.77
-25.16
-29.44
-32.79
-34.35
-33.52
-30.22
-24.85
-18.19
-11.07
-4.12
2.29
8.05
13.10
17.41
20.86
23.37
24.91
25.60
25.56
24.96
23.94
22.61
21.09
19.53
18.10
16.91
15.97
15.16
14.25
13.03
11.35
9.19
6.71
4.14
1.70
-0.47
-2.42
-4.36
-6.63
-9.58
-13.39
-17.95
-22.80
-27.12
-29.94
-30.49
-28.41
-23.93
-17.78
-10.84
-3.90
2.56
8.41
13.63
18.18
21.88
24.56
26.12
26.71
26.69
26.39
26.02
25.56
24.84
23.73
22.26
20.63
19.13
17.96
17.11
16.39
15.51
14.23
12.50
10.42
8.21
6.05
4.04
2.13
0.15
-2.13
-4.94
-8.40
-12.47
-16.84
-20.88
-23.76
-24.65
-22.96
-18.59
-11.98
-4.03
4.19
11.68
17.79
22.24
25.04
26.37
26.46
25.49
23.65
21.20
18.41
15.59
12.97
10.63
8.56
6.63
4.79
3.02
1.39
-0.05
-1.31
-2.48
-3.69
-5.05
-6.60
-8.35
-10.24
-12.21
-14.21
-16.21
-18.22
-20.31
-22.58
-25.11
-27.81
-30.39
-32.32
-33.00
-31.95
-28.98
-24.30
-18.40
-11.95
-5.61
0.14
4.98
8.77
11.48
13.15
13.92
13.98
13.55
12.84
12.00
11.07
10.04
8.89
7.64
6.40
5.26
4.25
3.28
2.19
0.82
-0.88
-2.81
-4.78
-6.64
-8.39
-10.11
-11.97
-14.05
-16.37
-18.91
-21.62
-24.45
-27.23
-29.60
-31.04
-30.95
-28.91
-24.86
-19.13
-12.37
-5.30
1.47
7.52
12.61
16.61
19.45
21.17
21.92
21.97
21.64
21.18
20.65
19.95
18.94
17.55
15.85
14.02
12.26
10.64
9.10
7.47
5.60
3.48
1.19
-1.11
-3.32
-5.41
-7.51
-9.73
-12.20
-14.98
-18.08
-21.49
-25.09
-28.60
-31.53
-33.26
-33.21
-31.06
-26.89
-21.17
-14.62
-7.94
-1.64
3.99
8.85
12.91
16.15
18.52
20.06
20.80
20.85
20.30
19.22
17.68
15.78
13.69
11.58
9.67
8.06
6.78
5.73
4.75
3.64
2.22
0.40
-1.76
-4.09
-6.39
-8.50
-10.39
-12.24
-14.26
-16.65
-19.45
-22.45
-25.26
-27.39
-28.36
-27.83
-25.64
-21.87
-16.83
-11.01
-4.94
0.86
6.01
10.24
13.48
15.75
17.14
17.82
17.92
17.59
16.87
15.82
14.50
13.02
11.54
10.18
9.00
7.86
6.59
5.05
3.20
1.19
-0.80
-2.63
-4.27
-5.79
-7.36
-9.10
-11.10
-13.40
-16.01
-18.89
-21.89
-24.71
-26.87
-27.85
-27.21
-24.77
-20.64
-15.23
-9.08
-2.76
3.27
8.70
13.30
16.92
19.51
21.01
21.47
21.04
19.93
18.42
16.76
15.16
13.73
12.47
11.28
10.04
8.65
7.07
5.30
3.44
1.55
-0.29
-2.05
-3.74
-5.42
-7.19
-9.16
-11.46
-14.18
-17.33
-20.75
-24.15
-27.07
-28.97
-29.35
-27.88
-24.50
-19.47
-13.27
-6.52
0.19
6.40
11.80
16.20
19.49
21.64
22.66
22.66
21.84
20.50
18.94
17.41
16.05
14.85
13.74
12.60
11.37
10.01
8.53
6.90
5.10
3.08
0.86
-1.48
-3.82
-6.02
-8.01
-9.88
-11.79
-13.98
-16.63
-19.76
-23.21
-26.53
-29.13
-30.35
-29.68
-26.91
-22.19
-16.02
-9.09
-2.11
4.32
9.81
14.17
17.37
19.49
20.69
21.16
21.06
20.51
19.60
18.41
17.00
15.43
13.81
12.22
10.71
9.29
7.94
6.61
5.20
3.66
1.94
0.06
-1.91
-3.87
-5.73
-7.48
-9.21
-11.11
-13.39
-16.20
-19.52
-23.08
-26.36
-28.70
-29.43
-28.13
-24.74
-19.57
-13.23
-6.45
0.12
6.04
11.05
15.10
18.23
20.49
21.92
22.52
22.33
21.47
20.16
18.66
17.24
16.04
15.05
14.15
13.19
12.07
10.76
9.30
7.70
5.92
3.91
1.66
-0.75
-3.15
-5.38
-7.39
-9.30
-11.34
-13.77
-16.72
-20.13
-23.66
-26.78
-28.87
-29.37
-27.96
-24.64
-19.74
-13.79
-7.41
-1.12
4.65
9.66
13.70
16.67
18.53
19.39
19.45
19.01
18.35
17.63
16.91
16.13
15.16
13.94
12.49
10.93
9.45
8.16
7.09
6.12
5.06
3.75
2.13
0.28
-1.61
-3.40
-5.08
-6.73
-8.50
-10.53
-12.91
-15.65
-18.67
-21.78
-24.65
-26.73
-27.38
-26.06
-22.60
-17.30
-10.92
-4.39
1.49
6.30
9.96
12.64
14.51
15.65
16.12
15.97
15.38
14.56
13.69
12.87
12.06
11.17
10.16
9.06
7.94
6.86
5.79
4.66
3.39
1.97
0.43
-1.19
-2.84
-4.48
-6.15
-7.89
-9.77
-11.91
-14.39
-17.21
-20.20
-23.00
-25.13
-26.08
-25.49
-23.32
-19.80
-15.40
-10.64
-5.94
-1.54
2.43
5.90
8.77
10.88
12.10
12.38
11.82
10.66
9.25
7.87
6.74
5.92
5.34
4.82
4.19
3.32
2.17
0.78
-0.69
-2.11
-3.43
-4.70
-6.04
-7.58
-9.41
-11.51
-13.88
-16.55
-19.58
-23.00
-26.65
-30.06
-32.49
-33.10
-31.31
-26.98
-20.56
-12.89
-4.94
2.51
9.00
14.43
18.81
22.21
24.62
25.99
26.34
25.83
24.76
23.48
22.24
21.16
20.17
19.14
17.95
16.56
15.01
13.37
11.73
10.07
8.33
6.42
4.26
1.83
-0.79
-3.47
-6.11
-8.71
-11.39
-14.27
-17.32
-20.28
-22.62
-23.70
-23.04
-20.49
-16.32
-11.05
-5.28
0.48
5.88
10.68
14.68
17.72
19.66
20.49
20.33
19.42
18.04
16.45
14.82
13.22
11.67
10.10
8.44
6.62
4.67
2.68
0.80
-0.80
-2.08
-3.12
-4.14
-5.41
-7.11
-9.31
-11.95
-14.92
-18.10
-21.33
-24.32
-26.62
-27.70
-27.09
-24.59
-20.40
-15.04
-9.18
-3.44
1.75
6.17
9.78
12.55
14.42
15.33
15.29
14.39
12.88
11.09
9.37
7.95
6.88
5.98
4.96
3.55
1.64
-0.63
-2.99
-5.11
-6.80
-8.03
-9.02
-10.03
-11.36
-13.18
-15.54
-18.29
-21.17
-23.76
-25.59
-26.16
-25.08
-22.18
-17.60
-11.74
-5.22
1.27
7.15
12.03
15.73
18.28
19.79
20.46
20.46
19.96
19.12
18.06
16.87
15.57
14.15
12.56
10.78
8.82
6.77
4.70
2.72
0.91
-0.73
-2.31
-3.96
-5.88
-8.25
-11.22
-14.83
-18.94
-23.13
-26.79
-29.14
-29.48
-27.42
-23.06
-16.92
-9.85
-2.67
3.98
9.77
14.61
18.51
21.46
23.40
24.28
24.11
23.04
21.35
19.42
17.55
15.95
14.64
13.50
12.37
11.08
9.56
7.83
6.01
4.17
2.33
0.45
-1.63
-4.03
-6.90
-10.26
-14.08
-18.19
-22.25
-25.74
-28.01
-28.48
-26.76
-22.80
-16.98
-9.99
-2.64
4.33
10.42
15.36
19.08
21.63
23.08
23.55
23.18
22.21
20.92
19.53
18.18
16.83
15.36
13.63
11.61
9.39
7.17
5.16
3.44
1.94
0.47
-1.16
-3.16
-5.68
-8.80
-12.57
-16.89
-21.45
-25.63
-28.69
-29.85
-28.65
-25.05
-19.50
-12.76
-5.68
1.09
7.14
12.32
16.55
19.73
21.74
22.49
22.05
20.68
18.84
16.96
15.35
14.04
12.85
11.53
9.89
7.93
5.80
3.74
1.88
0.27
-1.20
-2.72
-4.48
-6.65
-9.34
-12.63
-16.49
-20.70
-24.87
-28.39
-30.60
-30.89
-28.93
-24.75
-18.76
-11.62
-4.13
2.99
9.20
14.20
17.94
20.49
22.00
22.56
22.25
21.18
19.56
17.69
15.90
14.42
13.27
12.29
11.17
9.68
7.73
5.42
2.98
0.62
-1.55
-3.58
-5.59
-7.73
-10.16
-13.01
-16.39
-20.34
-24.74
-29.22
-33.11
-35.56
-35.76
-33.25
-28.05
-20.77
-12.39
-3.94
3.76
10.26
15.48
19.58
22.72
24.98
26.35
26.80
26.38
25.25
23.65
21.81
19.88
17.91
15.91
13.83
11.70
9.54
7.40
5.29
3.21
1.12
-1.00
-3.20
-5.48
-7.88
-10.46
-13.31
-16.59
-20.42
-24.81
-29.52
-33.95
-37.26
-38.52
-37.07
-32.75
-26.00
-17.74
-9.05
-0.84
6.31
12.23
16.93
20.53
23.07
24.60
25.20
25.04
24.35
23.37
22.22
20.94
19.48
17.84
16.07
14.30
12.60
11.02
9.44
7.68
5.61
3.16
0.42
-2.42
-5.18
-7.77
-10.24
-12.74
-15.51
-18.76
-22.59
-26.92
-31.37
-35.27
-37.75
-38.03
-35.63
-30.54
-23.28
-14.72
-5.83
2.56
9.85
15.75
20.18
23.29
25.34
26.58
27.24
27.41
27.08
26.21
24.79
22.95
20.86
18.72
16.69
14.83
13.11
11.46
9.76
7.94
5.95
3.82
1.58
-0.74
-3.17
-5.78
-8.63
-11.79
-15.31
-19.26
-23.62
-28.28
-32.84
-36.56
-38.50
-37.80
-34.06
-27.57
-19.28
-10.48
-2.30
4.56
10.03
14.38
17.95
20.90
23.13
24.43
24.69
23.97
22.57
20.91
19.35
18.09
17.16
16.44
15.71
14.77
13.51
11.90
9.99
7.87
5.64
3.37
1.06
-1.25
-3.59
-6.05
-8.81
-12.08
-16.02
-20.58
-25.33
-29.46
-32.01
-32.13
-29.41
-24.03
-16.72
-8.48
-0.28
7.23
13.69
19.06
23.33
26.54
28.68
29.77
29.97
29.48
28.52
27.18
25.48
23.36
20.82
18.03
15.24
12.74
10.72
9.16
7.85
6.48
4.80
2.70
0.21
-2.49
-5.24
-7.95
-10.66
-13.52
-16.77
-20.60
-25.05
-29.89
-34.60
-38.31
-40.05
-39.01
-34.82
-27.76
-18.74
-8.97
0.34
8.38
14.83
19.78
23.50
26.18
27.92
28.70
28.52
27.55
26.02
24.22
22.35
20.45
18.47
16.34
14.07
11.76
9.56
7.57
5.77
4.02
2.14
-0.01
-2.49
-5.16
-7.85
-10.45
-12.99
-15.65
-18.70
-22.30
-26.32
-30.29
-33.50
-35.11
-34.47
-31.25
-25.57
-17.96
-9.26
-0.43
7.66
14.37
19.40
22.78
24.77
25.73
25.93
25.54
24.63
23.25
21.49
19.49
17.41
15.35
13.31
11.27
9.19
7.09
5.05
3.14
1.37
-0.37
-2.23
-4.37
-6.82
-9.52
-12.31
-15.10
-17.93
-20.93
-24.24
-27.77
-31.11
-33.56
-34.33
-32.85
-28.93
-22.91
-15.45
-7.41
0.44
7.54
13.53
18.24
21.60
23.64
24.47
24.28
23.33
21.89
20.20
18.38
16.50
14.55
12.54
10.46
8.38
6.33
4.36
2.44
0.50
-1.54
-3.80
-6.28
-8.95
-11.68
-14.38
-17.03
-19.80
-22.87
-26.37
-30.13
-33.64
-36.07
-36.55
-34.52
-29.85
-23.02
-14.81
-6.15
2.18
9.64
15.92
20.85
24.31
26.26
26.76
26.06
24.51
22.52
20.43
18.46
16.64
14.91
13.18
11.38
9.50
7.55
5.54
3.43
1.17
-1.25
-3.83
-6.48
-9.10
-11.62
-14.12
-16.81
-19.96
-23.75
-28.03
-32.27
-35.57
-36.97
-35.72
-31.61
-24.99
-16.73
-7.87
0.64
8.14
14.32
19.11
22.60
24.90
26.11
26.35
25.81
24.67
23.15
21.44
19.67
17.91
16.15
14.37
12.48
10.45
8.25
5.91
3.49
1.02
-1.47
-3.93
-6.34
-8.68
-11.03
-13.55
-16.49
-20.06
-24.29
-28.86
-33.08
-36.03
-36.87
-35.02
-30.44
-23.58
-15.23
-6.32
2.31
10.03
16.44
21.37
24.82
26.85
27.64
27.39
26.33
24.70
22.76
20.69
18.65
16.71
14.89
13.14
11.35
9.44
7.36
5.10
2.72
0.29
-2.14
-4.60
-7.10
-9.65
-12.26
-14.95
-17.82
-21.02
-24.65
-28.57
-32.26
-34.87
-35.41
-33.17
-27.98
-20.34
-11.25
-1.93
6.61
13.69
19.05
22.77
25.07
26.26
26.63
26.36
25.63
24.54
23.21
21.74
20.21
18.63
16.97
15.14
13.05
10.69
8.12
5.46
2.82
0.23
-2.33
-4.93
-7.58
-10.23
-12.81
-15.33
-17.97
-20.97
-24.54
-28.59
-32.67
-35.95
-37.48
-36.48
-32.67
-26.33
-18.22
-9.28
-0.41
7.75
14.84
20.66
25.09
28.03
29.40
29.27
27.83
25.43
22.50
19.53
16.86
14.65
12.90
11.45
10.10
8.69
7.17
5.52
3.78
1.91
-0.15
-2.43
-4.93
-7.52
-10.07
-12.51
-14.95
-17.58
-20.61
-24.01
-27.40
-30.08
-31.22
-30.12
-26.50
-20.60
-13.14
-5.08
2.69
9.50
15.04
19.22
22.04
23.52
23.67
22.62
20.65
18.20
15.76
13.66
12.00
10.64
9.30
7.75
5.88
3.76
1.53
-0.67
-2.77
-4.79
-6.78
-8.84
-11.01
-13.35
-15.89
-18.70
-21.78
-24.97
-27.93
-30.11
-30.86
-29.65
-26.27
-20.89
-14.04
-6.49
1.00
7.83
13.65
18.29
21.71
23.86
24.72
24.32
22.79
20.42
17.62
14.85
12.48
10.66
9.31
8.15
6.86
5.19
3.11
0.77
-1.58
-3.72
-5.59
-7.29
-9.09
-11.29
-14.09
-17.51
-21.38
-25.30
-28.71
-30.97
-31.45
-29.72
-25.66
-19.50
-11.88
-3.62
4.44
11.63
17.57
22.11
25.24
27.03
27.54
26.86
25.17
22.73
19.92
17.11
14.61
12.52
10.78
9.17
7.48
5.52
3.27
0.80
-1.71
-4.09
-6.24
-8.19
-10.12
-12.30
-15.03
-18.44
-22.51
-26.83
-30.75
-33.42
-34.03
-32.10
-27.58
-20.93
-12.99
-4.72
3.05
9.77
15.19
19.27
22.04
23.53
23.78
22.94
21.25
19.10
16.87
14.86
13.14
11.60
9.99
8.08
5.77
3.16
0.50
-1.95
-3.98
-5.60
-6.98
-8.45
-10.36
-12.96
-16.37
-20.46
-24.91
-29.12
-32.32
-33.71
-32.68
-28.98
-22.89
-15.13
-6.69
1.43
8.51
14.20
18.47
21.45
23.29
24.08
23.84
22.64
20.69
18.31
15.90
13.79
12.09
10.70
9.38
7.84
5.92
3.63
1.14
-1.35
-3.67
-5.78
-7.78
-9.83
-12.19
-15.07
-18.63
-22.77
-27.11
-30.90
-33.22
-33.19
-30.29
-24.60
-16.80
-7.95
0.81
8.59
14.92
19.71
23.07
25.18
26.17
26.15
25.25
23.73
21.90
20.10
18.56
17.32
16.23
15.05
13.56
11.66
9.35
6.81
4.24
1.84
-0.29
-2.16
-3.88
-5.65
-7.71
-10.29
-13.53
-17.44
-21.76
-25.91
-29.07
-30.34
-29.05
-25.02
-18.68
-10.92
-2.85
4.63
10.96
15.94
19.59
21.97
23.09
22.97
21.74
19.74
17.46
15.39
13.87
12.92
12.28
11.55
10.35
8.54
6.22
3.74
1.46
-0.35
-1.71
-2.86
-4.17
-6.02
-8.63
-12.06
-16.17
-20.68
-25.09
-28.70
-30.70
-30.38
-27.36
-21.82
-14.45
-6.30
1.59
8.46
13.95
18.00
20.73
22.22
22.55
21.81
20.20
18.04
15.76
13.74
12.21
11.14
10.25
9.18
7.61
5.48
2.99
0.54
-1.53
-3.09
-4.28
-5.45
-7.02
-9.28
-12.39
-16.34
-20.97
-25.90
-30.45
-33.69
-34.60
-32.50
-27.26
-19.55
-10.60
-1.82
5.72
11.52
15.66
18.56
20.65
22.15
23.04
23.22
22.66
21.49
19.98
18.40
16.94
15.61
14.29
12.78
10.96
8.80
6.38
3.87
1.44
-0.83
-2.96
-5.02
-7.15
-9.49
-12.16
-15.30
-19.00
-23.25
-27.78
-32.01
-35.02
-35.86
-33.80
-28.68
-21.04
-11.94
-2.71
5.56
12.23
17.22
20.78
23.27
24.91
25.78
25.83
25.07
23.64
21.79
19.82
17.95
16.27
14.74
13.25
11.72
10.08
8.31
6.42
4.41
2.27
0.06
-2.23
-4.57
-6.99
-9.55
-12.33
-15.44
-18.97
-22.95
-27.19
-31.25
-34.38
-35.67
-34.32
-29.98
-22.94
-14.09
-4.66
4.17
11.57
17.15
20.93
23.15
24.17
24.34
24.00
23.45
22.87
22.24
21.43
20.28
18.69
16.70
14.51
12.35
10.37
8.59
6.90
5.15
3.21
1.01
-1.41
-3.95
-6.54
-9.11
-11.71
-14.44
-17.46
-20.93
-24.93
-29.36
-33.84
-37.70
-40.02
-39.93
-36.82
-30.69
-22.14
-12.30
-2.44
6.36
13.47
18.76
22.41
24.69
25.88
26.14
25.67
24.66
23.35
21.92
20.46
18.98
17.39
15.66
13.79
11.86
9.98
8.19
6.50
4.82
3.05
1.11
-1.07
-3.47
-6.06
-8.77
-11.56
-14.48
-17.66
-21.29
-25.43
-29.83
-33.84
-36.45
-36.60
-33.66
-27.69
-19.51
-10.43
-1.79
5.54
11.28
15.62
18.94
21.50
23.29
24.16
23.99
22.92
21.25
19.39
17.64
16.12
14.72
13.27
11.63
9.77
7.72
5.59
3.48
1.46
-0.45
-2.24
-4.00
-5.82
-7.84
-10.21
-13.11
-16.68
-20.97
-25.79
-30.63
-34.60
-36.62
-35.76
-31.60
-24.51
-15.56
-6.17
2.37
9.33
14.58
18.42
21.21
23.14
24.16
24.17
23.17
21.42
19.33
17.31
15.65
14.39
13.41
12.47
11.38
9.99
8.26
6.20
3.87
1.39
-1.09
-3.45
-5.61
-7.61
-9.59
-11.77
-14.38
-17.61
-21.52
-25.93
-30.36
-34.01
-35.96
-35.39
-31.91
-25.71
-17.56
-8.57
0.18
7.91
14.26
19.23
22.95
25.52
27.02
27.51
27.16
26.30
25.28
24.33
23.48
22.55
21.31
19.61
17.53
15.30
13.24
11.52
10.08
8.69
7.05
4.93
2.33
-0.57
-3.49
-6.21
-8.60
-10.78
-13.01
-15.65
-19.10
-23.56
-28.94
-34.71
-39.91
-43.35
-43.94
-41.06
-34.83
-26.04
-15.92
-5.76
3.43
11.11
17.15
21.68
24.91
27.00
28.12
28.44
28.18
27.62
26.99
26.39
25.78
25.00
23.85
22.23
20.19
17.96
15.83
14.04
12.67
11.57
10.48
9.03
6.97
4.20
0.83
-2.87
-6.54
-9.91
-12.86
-15.48
-18.08
-21.01
-24.58
-28.86
-33.62
-38.27
-41.98
-43.80
-42.98
-39.15
-32.48
-23.71
-13.90
-4.17
4.64
12.05
17.97
22.49
25.69
27.67
28.49
28.36
27.61
26.61
25.65
24.82
24.00
23.01
21.66
19.96
18.01
16.02
14.14
12.45
10.89
9.31
7.52
5.35
2.76
-0.19
-3.32
-6.37
-9.17
-11.68
-14.02
-16.43
-19.21
-22.61
-26.74
-31.41
-36.10
-39.92
-41.88
-41.10
-37.17
-30.36
-21.52
-11.83
-2.47
5.77
12.52
17.77
21.68
24.42
26.05
26.71
26.55
25.80
24.72
23.49
22.19
20.81
19.27
17.53
15.64
13.77
12.09
10.75
9.72
8.80
7.67
5.99
3.61
0.62
-2.66
-5.81
-8.52
-10.69
-12.55
-14.51
-17.05
-20.50
-24.83
-29.62
-34.07
-37.15
-37.89
-35.66
-30.37
-22.54
-13.15
-3.38
5.72
13.44
19.45
23.75
26.52
27.97
28.29
27.66
26.32
24.54
22.64
20.88
19.41
18.19
17.09
15.94
14.61
13.05
11.34
9.59
7.85
6.14
4.37
2.40
0.17
-2.30
-4.88
-7.41
-9.76
-11.94
-14.07
-16.36
-19.01
-22.15
-25.81
-29.85
-33.96
-37.62
-40.15
-40.85
-39.11
-34.69
-27.80
-19.10
-9.53
-0.10
8.39
15.43
20.85
24.71
27.18
28.47
28.77
28.30
27.27
25.95
24.57
23.26
22.02
20.77
19.39
17.78
15.96
14.00
12.01
10.11
8.36
6.72
5.09
3.29
1.17
-1.33
-4.18
-7.19
-10.16
-12.91
-15.37
-17.61
-19.76
-22.01
-24.54
-27.51
-30.95
-34.73
-38.51
-41.68
-43.46
-43.12
-40.16
-34.57
-26.77
-17.58
-7.95
1.27
9.43
16.18
21.39
25.11
27.44
28.56
28.70
28.12
27.11
25.90
24.64
23.39
22.08
20.60
18.87
16.88
14.75
12.66
10.77
9.11
7.58
5.94
3.93
1.47
-1.38
-4.37
-7.25
-9.89
-12.31
-14.70
-17.32
-20.39
-24.00
-28.06
-32.31
-36.25
-39.25
-40.60
-39.70
-36.22
-30.26
-22.31
-13.21
-3.91
4.75
12.12
17.85
21.88
24.32
25.41
25.46
24.78
23.70
22.44
21.11
19.72
18.19
16.44
14.50
12.50
10.64
9.01
7.60
6.25
4.69
2.78
0.48
-2.08
-4.73
-7.33
-9.83
-12.21
-14.59
-17.06
-19.79
-22.92
-26.48
-30.30
-33.85
-36.31
-36.79
-34.63
-29.66
-22.39
-13.80
-5.05
2.89
9.46
14.50
18.15
20.62
22.06
22.59
22.32
21.45
20.26
19.02
17.91
16.99
16.16
15.30
14.30
13.12
11.82
10.45
9.03
7.55
5.93
4.10
2.01
-0.31
-2.78
-5.27
-7.76
-10.30
-13.14
-16.54
-20.68
-25.41
-30.17
-33.98
-35.77
-34.71
-30.53
-23.67
-15.11
-6.07
2.39
9.60
15.28
19.47
22.30
23.92
24.52
24.29
23.51
22.51
21.52
20.65
19.84
18.93
17.76
16.26
14.50
12.63
10.80
9.08
7.38
5.56
3.44
0.99
-1.69
-4.40
-6.91
-9.10
-11.05
-13.00
-15.31
-18.30
-22.13
-26.66
-31.40
-35.55
-38.11
-38.18
-35.20
-29.22
-20.93
-11.44
-2.01
6.39
13.21
18.34
22.02
24.52
26.11
26.94
27.11
26.76
26.03
25.06
23.94
22.68
21.23
19.56
17.69
15.78
13.97
12.37
10.94
9.54
7.92
5.89
3.41
0.54
-2.51
-5.52
-8.31
-10.83
-13.13
-15.42
-18.00
-21.18
-25.14
-29.81
-34.71
-39.01
-41.65
-41.72
-38.71
-32.75
-24.51
-15.04
-5.45
3.40
10.95
16.97
21.46
24.52
26.29
26.95
26.76
25.99
24.93
23.80
22.70
21.63
20.49
19.15
17.55
15.76
13.92
12.20
10.70
9.35
7.96
6.30
4.17
1.56
-1.42
-4.54
-7.56
-10.33
-12.85
-15.32
-18.05
-21.36
-25.42
-30.01
-34.48
-37.79
-38.86
-36.98
-32.04
-24.67
-15.97
-7.14
0.84
7.46
12.61
16.43
19.10
20.79
21.62
21.74
21.30
20.48
19.42
18.20
16.88
15.53
14.21
12.99
11.91
10.94
10.03
9.04
7.85
6.37
4.55
2.46
0.21
-2.05
-4.19
-6.22
-8.30
-10.71
-13.75
-17.56
-22.00
-26.52
-30.29
-32.38
-32.06
-29.04
-23.55
-16.31
-8.28
-0.42
6.54
12.20
16.45
19.38
21.20
22.14
22.40
22.15
21.48
20.46
19.10
17.45
15.63
13.81
12.16
10.78
9.69
8.77
7.86
6.78
5.41
3.73
1.77
-0.44
-2.85
-5.42
-8.07
-10.74
-13.39
-16.07
-18.98
-22.37
-26.33
-30.59
-34.44
-36.87
-36.91
-33.99
-28.21
-20.28
-11.29
-2.37
5.68
12.41
17.67
21.51
24.01
25.32
25.62
25.18
24.28
23.23
22.22
21.30
20.45
19.53
18.41
17.03
15.43
13.74
12.14
10.75
9.58
8.48
7.21
5.48
3.17
0.29
-2.93
-6.20
-9.22
-11.84
-14.14
-16.36
-18.86
-21.97
-25.78
-30.05
-34.15
-37.16
-38.18
-36.56
-32.17
-25.42
-17.16
-8.36
0.13
7.74
14.16
19.26
23.00
25.36
26.44
26.44
25.74
24.77
23.88
23.20
22.68
22.10
21.23
19.94
18.26
16.38
14.52
12.86
11.43
10.10
8.66
6.91
4.75
2.23
-0.54
-3.36
-6.08
-8.58
-10.82
-12.88
-14.90
-17.15
-19.91
-23.34
-27.41
-31.80
-35.89
-38.88
-40.02
-38.75
-34.92
-28.77
-20.95
-12.31
-3.72
4.12
10.75
15.98
19.83
22.43
23.94
24.58
24.60
24.28
23.82
23.37
22.88
22.21
21.17
19.67
17.81
15.78
13.81
12.08
10.58
9.20
7.74
6.03
3.98
1.63
-0.95
-3.62
-6.27
-8.78
-11.11
-13.26
-15.33
-17.51
-20.02
-23.06
-26.67
-30.66
-34.53
-37.62
-39.16
-38.56
-35.51
-30.13
-22.96
-14.76
-6.44
1.24
7.75
12.86
16.58
19.02
20.39
20.88
20.69
20.07
19.28
18.48
17.72
16.91
15.88
14.56
13.03
11.50
10.25
9.37
8.75
8.08
7.01
5.35
3.11
0.56
-2.00
-4.33
-6.34
-8.15
-9.97
-12.07
-14.69
-17.95
-21.82
-25.98
-29.84
-32.59
-33.38
-31.63
-27.20
-20.59
-12.71
-4.67
2.63
8.64
13.23
16.55
18.79
20.16
20.77
20.74
20.22
19.39
18.40
17.27
15.93
14.27
12.29
10.15
8.12
6.46
5.26
4.34
3.37
2.03
0.18
-2.05
-4.37
-6.48
-8.26
-9.82
-11.42
-13.34
-15.79
-18.87
-22.57
-26.73
-31.00
-34.71
-36.97
-36.94
-34.10
-28.54
-20.98
-12.55
-4.38
2.72
8.41
12.70
15.83
18.02
19.41
20.10
20.19
19.85
19.23
18.42
17.44
16.27
14.91
13.44
11.97
10.57
9.22
7.74
5.96
3.76
1.15
-1.70
-4.63
-7.52
-10.37
-13.28
-16.38
-19.83
-23.74
-28.21
-33.24
-38.58
-43.69
-47.76
-49.87
-49.36
-46.05
-40.40
-33.32
-25.82
-18.68
-12.19
-6.23
-0.44
5.45
11.46
17.37
22.85
27.64
31.64
34.85
37.35
39.16
40.26
40.63
40.33
39.47
38.18
36.54
34.50
31.99
28.90
25.27
21.28
17.22
13.35
9.80
6.50
3.23
-0.33
-4.44
-9.15
-14.22
-19.09
-22.98
-25.07
-24.75
-21.87
-16.79
-10.35
-3.56
2.70
7.90
11.94
15.01
17.34
19.06
20.17
20.60
20.33
19.49
18.31
17.04
15.82
14.69
13.58
12.41
11.12
9.69
8.14
6.49
4.77
3.05
1.43
-0.07
-1.48
-2.97
-4.81
-7.25
-10.48
-14.51
-19.11
-23.79
-27.89
-30.63
-31.34
-29.62
-25.55
-19.70
-12.95
-6.24
-0.27
4.63
8.45
11.36
13.51
14.95
15.67
15.65
14.96
13.80
12.45
11.17
10.09
9.22
8.41
7.47
6.29
4.83
3.18
1.50
-0.12
-1.67
-3.19
-4.81
-6.68
-8.92
-11.64
-14.91
-18.68
-22.73
-26.59
-29.58
-30.94
-30.09
-26.89
-21.68
-15.27
-8.55
-2.31
3.07
7.56
11.35
14.57
17.20
19.11
20.12
20.20
19.54
18.40
17.08
15.76
14.51
13.29
12.01
10.61
9.06
7.39
5.67
3.97
2.33
0.73
-0.96
-2.87
-5.16
-7.94
-11.24
-15.07
-19.28
-23.58
-27.44
-30.13
-30.94
-29.46
-25.68
-20.06
-13.37
-6.39
0.32
6.47
11.97
16.79
20.82
23.90
25.87
26.68
26.51
25.71
24.70
23.80
23.12
22.55
21.80
20.60
18.84
16.61
14.18
11.80
9.66
7.77
6.03
4.25
2.24
-0.18
-3.13
-6.71
-10.95
-15.74
-20.77
-25.48
-29.08
-30.77
-29.98
-26.60
-21.04
-14.15
-6.83
0.14
6.39
11.84
16.55
20.57
23.82
26.17
27.56
28.03
27.75
26.88
25.57
23.91
22.00
19.89
17.68
15.40
13.10
10.77
8.43
6.15
3.99
2.01
0.20
-1.54
-3.41
-5.63
-8.43
-11.96
-16.24
-21.11
-26.15
-30.65
-33.77
-34.68
-32.89
-28.43
-21.86
-14.15
-6.32
0.86
6.97
11.96
15.93
19.00
21.16
22.39
22.73
22.33
21.44
20.30
19.09
17.83
16.49
15.05
13.56
12.16
10.93
9.88
8.86
7.64
6.01
3.87
1.30
-1.53
-4.41
-7.19
-9.76
-12.16
-14.51
-17.01
-19.87
-23.27
-27.17
-31.27
-34.91
-37.21
-37.30
-34.63
-29.20
-21.55
-12.68
-3.70
4.38
10.90
15.60
18.57
20.10
20.58
20.36
19.67
18.63
17.31
15.71
13.88
11.91
9.90
7.92
5.98
4.03
2.03
-0.05
-2.22
-4.51
-6.98
-9.78
-13.02
-16.71
-20.71
-24.77
-28.67
-32.33
-35.95
-39.89
-44.47
-49.77
-55.48
-60.86
-64.95
-66.81
-65.73
-61.54
-54.59
-45.74
-36.09
-26.73
-18.44
-11.65
-6.50
-2.94
-0.93
-0.35
-0.95
-2.22
-3.47
-3.93
-3.07
-0.73
2.78
6.91
11.03
14.70
17.75
20.28
22.48
24.48
26.24
27.51
27.89
26.97
24.49
20.49
15.30
9.55
4.08
-0.18
-2.36
-1.85
1.56
7.54
15.32
23.81
31.92
38.83
44.12
47.75
49.86
50.65
50.20
48.62
46.13
43.16
40.31
38.11
36.86
36.50
36.67
36.96
37.09
37.07
37.04
37.11
37.17
36.85
35.68
33.26
29.54
24.77
19.45
14.12
9.16
4.74
0.76
-3.06
-7.01
-11.30
-15.98
-20.85
-25.56
-29.60
-32.51
-33.91
-33.65
-31.77
-28.47
-24.03
-18.81
-13.18
-7.55
-2.25
2.40
6.17
8.91
10.49
10.89
10.17
8.53
6.33
3.97
1.80
0.03
-1.37
-2.53
-3.65
-4.85
-6.13
-7.43
-8.65
-9.78
-10.83
-11.87
-12.96
-14.13
-15.43
-16.87
-18.50
-20.33
-22.33
-24.31
-25.96
-26.91
-26.77
-25.27
-22.33
-18.08
-12.83
-7.00
-1.06
4.50
9.29
13.04
15.58
16.88
17.04
16.22
14.69
12.74
10.66
8.69
6.95
5.43
4.06
2.71
1.33
-0.09
-1.51
-2.89
-4.22
-5.52
-6.84
-8.27
-9.91
-11.87
-14.23
-16.94
-19.77
-22.32
-24.07
-24.52
-23.40
-20.68
-16.59
-11.52
-5.92
-0.17
5.37
10.39
14.54
17.51
19.13
19.39
18.52
16.88
14.86
12.79
10.81
9.00
7.33
5.77
4.27
2.76
1.13
-0.71
-2.80
-5.05
-7.26
-9.27
-11.04
-12.67
-14.45
-16.66
-19.44
-22.69
-26.03
-28.86
-30.53
-30.48
-28.41
-24.36
-18.68
-11.97
-4.89
2.00
8.27
13.71
18.15
21.49
23.60
24.39
23.90
22.38
20.22
17.90
15.73
13.83
12.10
10.32
8.30
5.99
3.47
0.87
-1.66
-4.06
-6.33
-8.52
-10.70
-12.98
-15.49
-18.36
-21.67
-25.33
-29.00
-32.09
-33.88
-33.70
-31.16
-26.27
-19.45
-11.49
-3.24
4.52
11.27
16.75
20.89
23.71
25.24
25.52
24.68
22.99
20.79
18.45
16.25
14.26
12.40
10.52
8.46
6.19
3.77
1.34
-0.93
-2.96
-4.77
-6.49
-8.41
-10.85
-14.06
-18.09
-22.70
-27.36
-31.27
-33.62
-33.72
-31.24
-26.27
-19.35
-11.32
-3.09
4.54
11.00
16.04
19.59
21.73
22.61
22.44
21.49
20.04
18.37
16.70
15.13
13.65
12.19
10.65
8.93
6.98
4.82
2.54
0.27
-1.87
-3.84
-5.72
-7.71
-10.07
-13.02
-16.72
-21.10
-25.81
-30.19
-33.35
-34.43
-32.84
-28.55
-22.10
-14.46
-6.63
0.65
7.08
12.64
17.40
21.31
24.12
25.54
25.45
24.09
21.98
19.78
18.01
16.81
16.01
15.21
14.03
12.28
10.07
7.66
5.36
3.33
1.51
-0.31
-2.39
-4.94
-8.09
-11.87
-16.23
-21.00
-25.78
-29.90
-32.48
-32.68
-30.03
-24.63
-17.24
-9.00
-1.05
5.87
11.48
15.93
19.45
22.16
24.03
24.93
24.88
24.03
22.71
21.26
19.90
18.68
17.49
16.19
14.58
12.55
10.10
7.31
4.38
1.54
-1.05
-3.30
-5.31
-7.27
-9.43
-12.07
-15.38
-19.48
-24.28
-29.41
-34.22
-37.79
-39.18
-37.71
-33.23
-26.21
-17.58
-8.49
0.04
7.40
13.36
18.04
21.65
24.39
26.33
27.46
27.76
27.31
26.24
24.78
23.11
21.38
19.64
17.83
15.91
13.86
11.70
9.49
7.29
5.10
2.86
0.50
-1.98
-4.57
-7.20
-9.89
-12.82
-16.25
-20.45
-25.38
-30.55
-35.00
-37.52
-37.12
-33.39
-26.71
-18.10
-8.87
-0.17
7.26
13.21
17.77
21.17
23.60
25.16
25.92
25.92
25.27
24.10
22.55
20.75
18.80
16.82
14.91
13.14
11.48
9.83
8.04
6.01
3.70
1.19
-1.39
-3.92
-6.36
-8.74
-11.17
-13.79
-16.84
-20.53
-24.94
-29.89
-34.78
-38.60
-40.20
-38.70
-33.92
-26.42
-17.40
-8.20
0.14
7.10
12.71
17.21
20.85
23.70
25.67
26.71
26.86
26.29
25.23
23.88
22.32
20.54
18.52
16.30
14.01
11.83
9.87
8.13
6.49
4.75
2.75
0.40
-2.22
-5.00
-7.78
-10.50
-13.24
-16.22
-19.72
-23.91
-28.71
-33.57
-37.55
-39.53
-38.55
-34.25
-27.05
-18.03
-8.57
0.12
7.36
13.06
17.51
21.07
23.88
25.86
26.80
26.63
25.51
23.81
21.99
20.35
18.94
17.65
16.25
14.59
12.59
10.31
7.87
5.41
3.08
0.94
-1.04
-2.99
-5.11
-7.61
-10.63
-14.21
-18.34
-22.91
-27.68
-32.19
-35.70
-37.33
-36.29
-32.29
-25.65
-17.30
-8.45
-0.18
6.83
12.41
16.68
19.85
22.01
23.16
23.29
22.47
20.94
19.04
17.09
15.31
13.75
12.35
10.96
9.40
7.60
5.54
3.33
1.12
-0.95
-2.79
-4.42
-5.99
-7.73
-9.90
-12.73
-16.34
-20.73
-25.70
-30.82
-35.37
-38.44
-39.14
-36.84
-31.53
-23.79
-14.73
-5.58
2.66
9.47
14.80
18.88
21.95
24.12
25.37
25.68
25.12
23.97
22.54
21.10
19.78
18.52
17.15
15.54
13.59
11.34
8.86
6.26
3.66
1.19
-1.05
-3.03
-4.82
-6.63
-8.75
-11.47
-15.02
-19.47
-24.66
-30.12
-35.09
-38.57
-39.62
-37.64
-32.60
-25.17
-16.42
-7.49
0.79
8.03
14.16
19.27
23.33
26.26
27.99
28.65
28.54
28.04
27.38
26.57
25.44
23.82
21.69
19.25
16.80
14.63
12.83
11.28
9.68
7.74
5.29
2.38
-0.78
-3.91
-6.80
-9.39
-11.84
-14.44
-17.51
-21.32
-25.90
-31.01
-36.04
-40.13
-42.31
-41.74
-38.04
-31.42
-22.64
-12.79
-3.00
5.90
13.45
19.52
24.12
27.35
29.33
30.21
30.29
29.89
29.31
28.69
27.96
26.95
25.44
23.38
20.87
18.24
15.81
13.80
12.23
10.85
9.32
7.29
4.61
1.33
-2.26
-5.81
-9.05
-11.90
-14.49
-17.12
-20.13
-23.79
-28.19
-33.14
-38.13
-42.25
-44.45
-43.78
-39.76
-32.64
-23.34
-13.15
-3.33
5.31
12.44
18.15
22.63
25.97
28.15
29.13
29.08
28.31
27.26
26.25
25.34
24.40
23.14
21.40
19.21
16.78
14.46
12.49
10.96
9.69
8.33
6.50
3.96
0.77
-2.78
-6.26
-9.29
-11.77
-13.89
-16.10
-18.85
-22.45
-26.93
-31.97
-37.01
-41.24
-43.78
-43.81
-40.80
-34.76
-26.23
-16.29
-6.14
3.14
10.87
16.81
21.08
23.95
25.67
26.45
26.50
26.02
25.24
24.36
23.49
22.62
21.66
20.46
18.95
17.11
15.11
13.15
11.41
9.93
8.56
7.04
5.07
2.53
-0.51
-3.80
-7.03
-9.96
-12.53
-14.89
-17.36
-20.29
-23.96
-28.42
-33.34
-38.03
-41.51
-42.77
-41.08
-36.24
-28.69
-19.40
-9.49
-0.01
8.34
15.21
20.51
24.28
26.61
27.64
27.59
26.75
25.52
24.24
23.15
22.29
21.48
20.46
18.98
16.99
14.67
12.41
10.62
9.47
8.79
8.12
6.91
4.82
1.88
-1.58
-5.07
-8.21
-10.90
-13.27
-15.62
-18.24
-21.33
-25.00
-29.20
-33.63
-37.70
-40.52
-41.12
-38.73
-33.15
-24.83
-14.84
-4.46
5.11
13.11
19.24
23.58
26.37
27.89
28.35
27.93
26.84
25.35
23.71
22.15
20.77
19.53
18.30
16.90
15.27
13.47
11.64
9.90
8.27
6.62
4.76
2.50
-0.20
-3.26
-6.49
-9.69
-12.70
-15.48
-18.14
-20.87
-23.98
-27.70
-32.05
-36.67
-40.81
-43.41
-43.51
-40.49
-34.38
-25.85
-16.00
-6.00
3.15
10.81
16.73
20.93
23.57
24.92
25.25
24.86
24.07
23.15
22.31
21.63
21.05
20.40
19.50
18.21
16.56
14.67
12.68
10.68
8.59
6.28
3.63
0.64
-2.50
-5.53
-8.23
-10.57
-12.74
-15.07
-17.89
-21.39
-25.51
-29.88
-33.83
-36.52
-37.11
-34.98
-29.98
-22.50
-13.43
-3.90
5.00
12.53
18.35
22.53
25.34
27.06
27.91
28.01
27.43
26.30
24.77
23.01
21.14
19.23
17.26
15.18
12.94
10.55
8.05
5.52
3.01
0.55
-1.87
-4.29
-6.74
-9.22
-11.73
-14.23
-16.81
-19.66
-23.00
-26.96
-31.38
-35.68
-38.93
-40.12
-38.45
-33.66
-26.15
-16.88
-7.10
2.04
9.73
15.65
19.84
22.60
24.23
24.91
24.74
23.78
22.15
20.12
18.03
16.14
14.56
13.20
11.80
10.15
8.14
5.81
3.36
0.97
-1.22
-3.17
-4.97
-6.77
-8.78
-11.20
-14.23
-17.96
-22.30
-26.97
-31.40
-34.86
-36.53
-35.74
-32.13
-25.86
-17.59
-8.33
0.81
8.93
15.47
20.30
23.56
25.49
26.30
26.16
25.17
23.47
21.27
18.85
16.53
14.55
13.02
11.89
10.91
9.82
8.35
6.42
4.11
1.63
-0.83
-3.15
-5.33
-7.51
-9.90
-12.72
-16.18
-20.40
-25.27
-30.39
-34.95
-37.90
-38.23
-35.30
-29.18
-20.63
-10.92
-1.39
6.93
13.51
18.32
21.55
23.49
24.32
24.15
23.14
21.51
19.60
17.75
16.18
14.96
13.96
12.94
11.63
9.89
7.76
5.40
3.02
0.77
-1.32
-3.35
-5.48
-7.88
-10.62
-13.79
-17.44
-21.62
-26.22
-30.90
-35.00
-37.61
-37.81
-35.02
-29.27
-21.22
-11.98
-2.77
5.46
12.21
17.42
21.25
23.88
25.43
25.98
25.67
24.72
23.42
22.04
20.69
19.36
17.90
16.20
14.19
11.93
9.51
7.04
4.60
2.24
-0.02
-2.23
-4.45
-6.84
-9.54
-12.71
-16.49
-20.94
-25.90
-30.96
-35.37
-38.17
-38.49
-35.84
-30.34
-22.77
-14.27
-5.93
1.49
7.69
12.79
16.96
20.29
22.73
24.18
24.62
24.22
23.30
22.16
20.97
19.77
18.50
17.08
15.48
13.73
11.89
9.95
7.87
5.63
3.24
0.79
-1.67
-4.10
-6.63
-9.45
-12.81
-16.89
-21.74
-27.15
-32.61
-37.28
-40.19
-40.45
-37.59
-31.76
-23.71
-14.59
-5.51
2.72
9.75
15.59
20.33
24.02
26.59
27.92
28.07
27.26
25.86
24.26
22.71
21.27
19.78
18.05
15.90
13.34
10.50
7.59
4.84
2.37
0.17
-1.88
-3.93
-6.16
-8.70
-11.68
-15.21
-19.39
-24.15
-29.12
-33.56
-36.49
-36.96
-34.41
-28.95
-21.32
-12.63
-4.00
3.79
10.39
15.79
20.11
23.41
25.66
26.78
26.82
25.96
24.45
22.56
20.51
18.38
16.20
13.96
11.63
9.22
6.74
4.26
1.82
-0.55
-2.84
-5.07
-7.32
-9.71
-12.37
-15.47
-19.18
-23.56
-28.52
-33.72
-38.48
-41.90
-43.08
-41.42
-36.85
-29.88
-21.37
-12.30
-3.41
4.87
12.37
18.98
24.53
28.75
31.42
32.50
32.21
30.97
29.21
27.24
25.18
22.97
20.49
17.66
14.54
11.25
7.95
4.76
1.67
-1.38
-4.51
-7.84
-11.39
-15.14
-19.03
-23.06
-27.28
-31.90
-37.07
-42.78
-48.64
-53.92
-57.65
-58.96
-57.40
-53.06
-46.54
-38.60
-29.93
-20.88
-11.59
-2.09
7.39
16.39
24.33
30.71
35.34
38.34
40.06
40.86
41.01
40.60
39.64
38.15
36.23
33.96
31.45
28.68
25.61
22.16
18.33
14.21
9.94
5.71
1.63
-2.32
-6.27
-10.49
-15.24
-20.68
-26.65
-32.60
-37.59
-40.55
-40.54
-37.12
-30.52
-21.54
-11.32
-1.00
8.59
16.99
24.02
29.64
33.80
36.45
37.63
37.52
36.47
34.95
33.37
31.97
30.82
29.80
28.72
27.45
26.00
24.47
23.02
21.77
20.72
19.73
18.64
17.33
15.78
14.05
12.17
10.09
7.66
4.83
1.83
-0.75
-1.98
-0.91
2.99
9.62
18.12
27.21
35.58
42.34
47.14
50.13
51.68
52.10
51.57
50.20
48.14
45.65
43.09
40.70
38.55
36.54
34.46
32.19
29.76
27.36
25.22
23.48
22.13
21.04
20.02
18.86
17.37
15.39
12.79
9.57
5.88
1.99
-1.85
-5.51
-9.07
-12.76
-16.77
-21.06
-25.26
-28.83
-31.23
-32.17
-31.74
-30.36
-28.60
-27.02
-26.00
-25.69
-26.07
-26.91
-27.96
-28.97
-29.73
-30.12
-30.09
-29.68
-28.97
-28.15
-27.38
-26.82
-26.50
-26.37
-26.35
-26.36
-26.38
-26.46
-26.63
-26.81
-26.88
-26.67
-26.04
-24.96
-23.53
-21.84
-20.02
-18.11
-16.12
-14.05
-11.96
-9.91
-7.98
-6.21
-4.61
-3.21
-2.05
-1.25
-0.91
-1.08
-1.70
-2.57
-3.46
-4.19
-4.72
-5.15
-5.67
-6.46
-7.60
-9.09
-10.81
-12.64
-14.46
-16.19
-17.73
-18.98
-19.82
-20.21
-20.22
-20.00
-19.77
-19.67
-19.75
-19.90
-19.96
-19.78
-19.35
-18.73
-18.02
-17.30
-16.57
-15.72
-14.62
-13.14
-11.22
-8.94
-6.48
-4.12
-2.09
-0.51
0.70
1.73
2.84
4.17
5.69
7.20
8.42
9.14
9.29
8.95
8.25
7.28
6.04
4.46
2.53
0.28
-2.18
-4.72
-7.29
-9.87
-12.41
-14.74
-16.54
-17.38
-16.96
-15.29
-12.73
-9.88
-7.34
-5.50
-4.35
-3.65
-3.08
-2.38
-1.48
-0.39
0.87
2.32
3.98
5.80
7.62
9.21
10.36
10.94
10.93
10.34
9.17
7.35
4.94
2.14
-0.64
-2.87
-4.10
-4.08
-2.90
-0.86
1.64
4.31
7.03
9.79
12.58
15.27
17.58
19.16
19.78
19.45
18.43
17.13
15.90
14.87
13.92
12.76
11.11
8.86
6.15
3.26
0.53
-1.79
-3.57
-4.83
-5.69
-6.31
-6.84
-7.40
-8.02
-8.59
-8.88
-8.58
-7.43
-5.35
-2.53
0.60
3.47
5.60
6.71
6.83
6.23
5.28
4.31
3.58
3.18
3.12
3.33
3.65
3.87
3.74
3.02
1.60
-0.54
-3.29
-6.48
-9.89
-13.40
-16.89
-20.30
-23.57
-26.53
-28.89
-30.26
-30.18
-28.28
-24.44
-18.81
-11.89
-4.40
2.83
9.05
13.71
16.54
17.58
17.07
15.42
13.08
10.38
7.54
4.60
1.52
-1.82
-5.48
-9.45
-13.60
-17.77
-21.77
-25.43
-28.66
-31.42
-33.75
-35.78
-37.81
-40.24
-43.45
-47.65
-52.59
-57.54
-61.41
-63.04
-61.65
-57.07
-49.71
-40.47
-30.43
-20.61
-11.90
-4.91
0.04
2.94
4.08
3.99
3.22
2.22
1.14
-0.06
-1.57
-3.49
-5.70
-7.84
-9.38
-9.70
-8.37
-5.24
-0.63
4.70
9.66
13.08
14.00
11.97
7.34
1.19
-4.82
-8.96
-9.89
-7.06
-0.82
7.82
17.66
27.62
37.04
45.52
52.83
58.68
62.76
64.88
65.06
63.61
60.99
57.61
53.73
49.36
44.48
39.11
33.48
28.00
23.10
19.06
15.85
13.26
10.84
8.21
5.07
1.26
-3.21
-8.19
-13.30
-17.98
-21.45
-22.99
-22.05
-18.52
-12.73
-5.38
2.71
10.75
18.14
24.49
29.49
32.93
34.70
34.81
33.45
30.99
27.92
24.71
21.70
19.04
16.62
14.22
11.61
8.64
5.34
1.89
-1.47
-4.54
-7.26
-9.73
-12.22
-15.03
-18.38
-22.26
-26.30
-29.84
-32.02
-31.99
-29.24
-23.72
-15.86
-6.51
3.38
12.97
21.63
28.97
34.76
38.82
41.05
41.50
40.41
38.24
35.55
32.86
30.55
28.80
27.57
26.72
26.07
25.50
24.94
24.49
24.31
24.56
25.32
26.46
27.68
28.49
28.46
27.33
25.27
22.77
20.65
19.78
20.86
24.16
29.45
35.98
42.64
48.26
51.87
52.95
51.51
48.00
43.08
37.37
31.30
25.06
18.70
12.29
5.97
0.04
-5.24
-9.67
-13.28
-16.24
-18.86
-21.33
-23.76
-26.06
-28.10
-29.81
-31.29
-32.82
-34.78
-37.44
-40.80
-44.61
-48.43
-51.75
-54.13
-55.19
-54.53
-51.82
-46.78
-39.47
-30.38
-20.40
-10.66
-2.24
4.11
8.07
9.70
9.28
7.24
4.06
0.22
-3.79
-7.60
-11.01
-14.05
-16.92
-19.85
-22.98
-26.28
-29.54
-32.47
-34.89
-36.81
-38.49
-40.37
-42.99
-46.77
-51.85
-57.86
-63.91
-68.63
-70.54
-68.42
-61.81
-51.14
-37.70
-23.23
-9.45
2.40
11.72
18.52
23.18
26.19
27.94
28.66
28.43
27.28
25.31
22.72
19.79
16.78
13.82
10.88
7.83
4.55
1.10
-2.31
-5.37
-7.84
-9.73
-11.30
-12.98
-15.24
-18.43
-22.65
-27.67
-32.93
-37.60
-40.76
-41.59
-39.65
-34.97
-28.08
-19.80
-11.01
-2.45
5.36
12.13
17.65
21.79
24.42
25.49
25.03
23.27
20.61
17.61
14.86
12.87
11.88
11.88
12.60
13.60
14.48
14.91
14.68
13.62
11.58
8.43
4.15
-1.14
-7.17
-13.62
-20.22
-26.77
-33.09
-38.85
-43.54
-46.46
-46.89
-44.39
-38.94
-31.04
-21.55
-11.47
-1.68
7.21
14.86
21.13
26.00
29.51
31.78
32.98
33.37
33.18
32.65
31.90
30.97
29.84
28.43
26.70
24.61
22.21
19.58
16.87
14.17
11.55
8.98
6.33
3.42
0.03
-3.98
-8.67
-13.87
-19.13
-23.71
-26.78
-27.56
-25.68
-21.21
-14.72
-7.01
1.10
8.95
16.08
22.20
27.12
30.69
32.82
33.54
33.01
31.47
29.21
26.52
23.67
20.84
18.11
15.49
12.87
10.16
7.30
4.36
1.48
-1.19
-3.61
-5.87
-8.26
-11.13
-14.80
-19.46
-25.00
-31.01
-36.75
-41.26
-43.59
-43.01
-39.27
-32.63
-23.83
-13.82
-3.51
6.40
15.43
23.32
29.84
34.82
38.10
39.69
39.82
38.91
37.45
35.86
34.40
33.07
31.73
30.16
28.20
25.79
23.05
20.17
17.38
14.82
12.53
10.42
8.33
6.06
3.49
0.57
-2.66
-5.99
-9.10
-11.43
-12.29
-10.97
-6.98
-0.30
8.55
18.60
28.71
37.81
45.16
50.31
53.08
53.41
51.39
47.28
41.59
35.11
28.75
23.28
19.18
16.45
14.73
13.49
12.34
11.20
10.29
10.03
10.73
12.43
14.82
17.38
19.60
21.17
22.07
22.48
22.70
22.92
23.18
23.37
23.33
22.91
22.13
21.11
20.05
19.12
18.35
17.64
16.83
15.82
14.65
13.46
12.38
11.47
10.63
9.72
8.67
7.56
6.61
6.07
6.08
6.56
7.24
7.78
7.89
7.41
6.38
4.95
3.35
1.80
0.48
-0.54
-1.24
-1.73
-2.09
-2.41
-2.74
-3.13
-3.56
-4.06
