1478932402.00
64.000000
-0.00
-0.00
-0.00
-0.00
-0.00
-0.00
-0.00
-0.00
-0.00
-0.00
0.00
0.01
0.01
-0.00
-0.03
-0.05
-0.05
0.00
0.13
0.36
0.66
1.01
1.37
1.72
2.06
2.40
2.79
3.24
3.80
4.42
5.06
5.66
6.20
6.68
7.15
7.68
8.31
9.14
10.09
11.04
11.88
12.56
13.14
13.76
14.65
15.96
17.91
20.32
22.90
25.38
27.58
29.57
31.68
34.32
37.81
42.54
48.15
54.10
59.83
64.97
69.58
74.14
79.35
85.71
93.76
103.00
112.62
121.73
129.76
136.74
143.30
150.76
157.80
166.69
177.99
191.79
206.88
220.36
227.90
224.90
208.00
176.32
132.23
79.53
22.53
-35.55
-93.16
-150.00
-206.17
-261.35
-314.69
-364.77
-410.71
-451.86
-487.66
-517.20
-539.03
-551.29
-552.13
-540.47
-516.17
-480.59
-435.99
-385.10
-330.48
-274.19
-217.70
-162.06
-108.29
-57.44
-10.84
30.26
65.05
93.34
115.68
133.07
146.62
157.09
164.77
169.44
170.77
168.67
163.59
156.49
148.51
140.66
133.42
126.66
119.82
112.26
103.43
93.03
81.08
68.17
55.66
45.74
40.83
42.66
51.33
64.80
79.49
91.54
98.30
99.15
95.33
89.08
82.05
74.95
67.69
59.97
51.90
44.12
37.55
32.89
30.32
29.45
29.45
29.50
28.98
27.63
25.53
22.98
20.28
17.59
14.83
11.86
8.59
5.08
1.64
-1.35
-3.48
-4.55
-4.62
-4.09
-3.47
-3.18
-3.29
-3.46
-3.14
-1.95
0.01
2.09
3.37
3.16
1.35
-1.55
-4.69
-7.35
-9.20
-10.24
-10.60
-10.24
-8.95
-6.59
-3.36
0.15
3.12
4.89
5.21
4.28
2.65
0.84
-0.84
-2.33
-3.68
-4.95
-6.04
-6.81
-7.07
-6.74
-5.88
-4.65
-3.24
-1.86
-0.65
0.29
0.97
1.42
1.69
1.83
1.82
1.65
1.28
0.75
0.20
-0.18
-0.15
0.57
2.19
4.78
8.17
11.93
15.44
18.08
19.38
19.18
17.60
14.97
11.66
8.05
4.23
0.39
-3.27
-6.45
-8.89
-10.43
-11.12
-11.21
-11.02
-10.85
-10.86
-11.02
-11.20
-11.25
-11.02
-10.49
-9.76
-9.01
-8.51
-8.49
-9.03
-10.00
-10.96
-11.33
-10.54
-8.37
-5.03
-1.16
2.43
5.04
6.30
6.22
5.15
3.55
1.85
0.33
-0.90
-1.91
-2.80
-3.67
-4.50
-5.13
-5.38
-5.10
-4.29
-3.16
-2.08
-1.39
-1.29
-1.75
-2.57
-3.49
-4.31
-4.96
-5.48
-6.00
-6.70
-7.70
-9.12
-10.99
-13.22
-15.48
-17.26
-17.59
-15.67
-11.14
-4.30
3.88
12.07
19.01
23.91
26.62
27.48
26.97
25.49
23.28
20.46
17.18
13.73
10.47
7.73
5.67
4.20
3.07
1.97
0.67
-0.87
-2.50
-3.99
-5.13
-5.89
-6.41
-6.98
-7.87
-9.31
-11.38
-14.12
-17.48
-21.25
-25.03
-28.12
-29.65
-28.81
-25.16
-18.90
-10.85
-2.21
5.82
12.38
17.11
20.11
21.70
22.26
22.01
21.03
19.35
17.03
14.27
11.38
8.70
6.51
4.91
3.83
3.09
2.46
1.79
1.02
0.15
-0.78
-1.76
-2.82
-4.04
-5.53
-7.43
-9.87
-12.96
-16.74
-21.08
-25.60
-29.62
-32.26
-32.68
-30.35
-25.24
-17.93
-9.42
-0.87
6.68
12.57
16.53
18.61
19.04
18.06
15.92
12.89
9.26
5.38
1.67
-1.56
-4.10
-6.00
-7.53
-9.07
-10.94
-13.23
-15.78
-18.23
-20.22
-21.52
-22.23
-22.68
-23.34
-24.66
-26.98
-30.40
-34.72
-39.42
-43.71
-46.62
-47.22
-44.89
-39.55
-31.67
-22.19
-12.24
-2.85
5.26
11.69
16.37
19.39
20.88
21.01
19.99
18.17
16.05
14.25
13.44
14.09
16.32
19.84
24.05
28.18
31.60
33.93
35.10
35.21
34.43
32.84
30.44
27.16
22.95
17.79
11.69
4.73
-2.83
-10.42
-17.07
-21.61
-22.92
-20.40
-14.24
-5.45
4.48
13.97
21.89
27.68
31.35
33.24
33.73
33.07
31.41
28.83
25.56
21.93
18.41
15.40
13.09
11.42
10.12
8.86
7.43
5.81
4.17
2.70
1.52
0.54
-0.48
-1.85
-3.77
-6.37
-9.67
-13.67
-18.34
-23.50
-28.72
-33.18
-35.78
-35.48
-31.68
-24.55
-15.02
-4.52
5.54
14.10
20.65
25.14
27.74
28.67
28.10
26.22
23.32
19.80
16.12
12.75
10.02
8.05
6.75
5.85
5.06
4.13
3.00
1.71
0.42
-0.79
-1.95
-3.20
-4.76
-6.86
-9.68
-13.36
-17.94
-23.30
-28.99
-34.16
-37.65
-38.25
-35.17
-28.31
-18.51
-7.23
3.82
13.25
20.31
24.92
27.47
28.45
28.25
27.09
25.12
22.54
19.65
16.82
14.33
12.33
10.77
9.47
8.24
6.94
5.53
4.06
2.56
1.07
-0.44
-2.02
-3.76
-5.77
-8.21
-11.29
-15.20
-20.05
-25.58
-31.13
-35.58
-37.65
-36.36
-31.37
-23.18
-13.01
-2.36
7.47
15.66
21.95
26.43
29.28
30.60
30.44
28.94
26.38
23.26
20.11
17.36
15.21
13.61
12.33
11.08
9.63
7.94
6.10
4.30
2.72
1.41
0.31
-0.80
-2.24
-4.29
-7.19
-11.07
-15.86
-21.28
-26.68
-31.11
-33.43
-32.66
-28.35
-20.85
-11.29
-1.15
8.13
15.59
20.92
24.27
25.99
26.38
25.58
23.66
20.79
17.31
13.72
10.54
8.17
6.73
6.09
5.88
5.68
5.18
4.22
2.87
1.35
-0.06
-1.20
-2.08
-2.90
-3.93
-5.50
-7.85
-11.13
-15.32
-20.15
-25.01
-28.98
-30.98
-30.10
-25.89
-18.67
-9.42
0.44
9.48
16.65
21.50
24.11
24.91
24.41
23.02
21.04
18.62
15.90
13.05
10.26
7.75
5.69
4.14
3.09
2.44
2.07
1.81
1.52
1.08
0.40
-0.55
-1.76
-3.23
-4.94
-6.93
-9.30
-12.22
-15.88
-20.27
-25.11
-29.67
-32.92
-33.73
-31.38
-25.76
-17.55
-7.99
1.49
9.73
16.06
20.31
22.64
23.34
22.71
21.04
18.61
15.72
12.66
9.73
7.15
5.11
3.75
3.08
3.00
3.27
3.58
3.62
3.19
2.23
0.87
-0.73
-2.39
-4.01
-5.64
-7.38
-9.42
-12.01
-15.34
-19.47
-24.15
-28.73
-32.25
-33.58
-31.89
-26.92
-19.18
-9.79
-0.15
8.46
15.24
19.92
22.64
23.75
23.57
22.35
20.26
17.50
14.36
11.20
8.42
6.31
5.02
4.45
4.37
4.47
4.45
4.13
3.45
2.44
1.21
-0.16
-1.62
-3.16
-4.82
-6.64
-8.69
-11.07
-13.97
-17.56
-21.88
-26.61
-30.97
-33.80
-33.90
-30.52
-23.71
-14.39
-4.10
5.57
13.43
18.94
22.20
23.60
23.63
22.59
20.70
18.14
15.20
12.23
9.57
7.46
5.93
4.85
4.03
3.33
2.75
2.38
2.26
2.26
2.11
1.47
0.14
-1.87
-4.35
-6.97
-9.46
-11.69
-13.75
-15.84
-18.28
-21.35
-25.22
-29.76
-34.40
-38.13
-39.76
-38.32
-33.46
-25.69
-16.24
-6.59
1.92
8.53
13.06
15.75
16.97
17.06
16.25
14.75
12.84
10.90
9.36
8.52
8.50
9.18
10.20
11.12
11.58
11.36
10.46
9.04
7.30
5.43
3.49
1.45
-0.75
-3.21
-5.95
-9.00
-12.40
-16.27
-20.69
-25.56
-30.39
-34.29
-36.13
-34.97
-30.41
-22.84
-13.35
-3.42
5.60
12.80
17.82
20.79
22.09
22.15
21.32
19.87
17.98
15.81
13.47
11.14
8.99
7.20
5.87
5.01
4.55
4.33
4.15
3.77
2.99
1.61
-0.48
-3.28
-6.65
-10.39
-14.22
-17.94
-21.43
-24.79
-28.29
-32.30
-37.09
-42.53
-47.97
-52.20
-53.75
-51.43
-44.76
-34.24
-21.18
-7.31
5.75
16.89
25.61
31.84
35.80
37.77
38.08
37.14
35.44
33.48
31.63
30.00
28.50
26.90
25.04
22.90
20.68
18.65
17.03
15.80
14.75
13.46
11.53
8.73
5.10
0.96
-3.25
-7.13
-10.46
-13.27
-15.86
-18.62
-21.90
-25.85
-30.25
-34.51
-37.73
-38.84
-36.99
-31.76
-23.45
-13.02
-1.85
8.63
17.31
23.60
27.45
29.23
29.49
28.78
27.55
26.12
24.76
23.64
22.95
22.85
23.41
24.61
26.31
28.29
30.31
32.21
33.82
34.99
35.48
35.04
33.45
30.69
26.98
22.72
18.37
14.18
10.14
5.95
1.24
-4.28
-10.62
-17.39
-23.79
-28.76
-31.20
-30.34
-26.03
-18.88
-10.13
-1.31
6.27
11.81
15.15
16.63
16.75
15.95
14.49
12.51
10.14
7.64
5.35
3.61
2.66
2.57
3.19
4.21
5.28
6.10
6.52
6.59
6.49
6.45
6.57
6.80
6.90
6.55
5.53
3.73
1.15
-2.16
-6.07
-10.35
-14.46
-17.56
-18.63
-16.84
-11.94
-4.49
4.30
12.90
20.00
24.85
27.34
27.77
26.59
24.17
20.76
16.57
11.90
7.20
3.04
-0.13
-2.08
-2.92
-3.07
-3.08
-3.43
-4.28
-5.51
-6.81
-7.86
-8.54
-8.98
-9.50
-10.49
-12.20
-14.76
-18.11
-22.01
-26.01
-29.42
-31.42
-31.21
-28.34
-22.88
-15.56
-7.50
0.13
6.47
11.12
14.08
15.52
15.61
14.42
12.03
8.68
4.88
1.23
-1.68
-3.58
-4.53
-4.92
-5.21
-5.77
-6.68
-7.76
-8.72
-9.30
-9.46
-9.40
-9.50
-10.20
-11.86
-14.62
-18.34
-22.53
-26.39
-28.93
-29.28
-26.90
-21.85
-14.80
-6.81
0.96
7.62
12.68
16.04
17.85
18.25
17.39
15.39
12.47
9.02
5.52
2.43
0.06
-1.56
-2.63
-3.43
-4.20
-4.99
-5.70
-6.15
-6.26
-6.10
-5.96
-6.24
-7.29
-9.35
-12.45
-16.35
-20.61
-24.46
-27.04
-27.47
-25.24
-20.38
-13.52
-5.78
1.68
7.92
12.50
15.40
16.83
17.04
16.18
14.36
11.73
8.63
5.47
2.66
0.43
-1.20
-2.46
-3.65
-5.03
-6.70
-8.53
-10.25
-11.58
-12.43
-12.92
-13.45
-14.52
-16.58
-19.87
-24.29
-29.34
-34.13
-37.54
-38.47
-36.22
-30.74
-22.77
-13.60
-4.63
3.05
8.96
13.18
16.00
17.68
18.27
17.73
16.06
13.54
10.64
7.87
5.56
3.74
2.17
0.50
-1.54
-3.95
-6.47
-8.70
-10.26
-10.98
-10.99
-10.69
-10.60
-11.22
-12.95
-15.97
-20.24
-25.44
-30.86
-35.49
-38.16
-37.86
-34.17
-27.43
-18.66
-9.26
-0.53
6.70
12.15
16.01
18.70
20.58
21.89
22.71
23.05
22.85
22.10
20.80
19.02
16.94
14.81
12.90
11.48
10.70
10.54
10.83
11.21
11.28
10.66
9.15
6.79
3.82
0.58
-2.61
-5.54
-8.25
-10.97
-14.06
-17.83
-22.33
-27.14
-31.32
-33.64
-32.91
-28.52
-20.67
-10.47
0.48
10.58
18.75
24.57
28.28
30.44
31.64
32.30
32.60
32.63
32.38
31.85
31.05
30.00
28.73
27.32
25.93
24.73
23.87
23.43
23.33
23.39
23.36
23.03
22.25
20.96
19.12
16.74
13.79
10.32
6.46
2.45
-1.43
-4.94
-7.97
-10.62
-13.11
-15.70
-18.61
-22.02
-26.05
-30.74
-35.95
-41.18
-45.52
-47.73
-46.65
-41.67
-33.05
-21.93
-9.97
1.21
10.52
17.54
22.49
25.86
28.10
29.49
30.13
30.07
29.41
28.32
27.04
25.75
24.56
23.43
22.26
20.95
19.45
17.85
16.31
15.00
14.00
13.24
12.50
11.46
9.85
7.53
4.57
1.27
-2.02
-4.97
-7.48
-9.67
-11.87
-14.42
-17.59
-21.47
-26.01
-30.92
-35.65
-39.38
-41.10
-39.92
-35.39
-27.78
-18.05
-7.56
2.35
10.74
17.20
21.81
24.85
26.62
27.29
27.02
25.95
24.30
22.36
20.42
18.70
17.30
16.15
15.14
14.11
13.02
11.95
11.07
10.47
10.10
9.68
8.84
7.28
4.91
1.94
-1.26
-4.25
-6.73
-8.66
-10.23
-11.84
-13.89
-16.73
-20.50
-25.04
-29.85
-34.06
-36.59
-36.46
-33.10
-26.60
-17.79
-7.97
1.47
9.46
15.44
19.39
21.64
22.59
22.60
21.90
20.64
18.95
16.95
14.78
12.59
10.55
8.82
7.51
6.71
6.38
6.38
6.48
6.39
5.88
4.83
3.22
1.14
-1.20
-3.61
-5.90
-8.00
-9.92
-11.80
-13.89
-16.53
-19.92
-24.04
-28.41
-32.13
-34.09
-33.33
-29.37
-22.50
-13.69
-4.27
4.50
11.78
17.19
20.81
22.92
23.80
23.64
22.63
20.95
18.85
16.62
14.55
12.80
11.40
10.25
9.21
8.17
7.15
6.23
5.52
5.05
4.72
4.23
3.28
1.64
-0.69
-3.48
-6.35
-8.97
-11.20
-13.09
-14.89
-16.93
-19.53
-22.92
-27.13
-31.81
-36.18
-39.14
-39.54
-36.61
-30.31
-21.42
-11.30
-1.42
7.10
13.73
18.49
21.71
23.75
24.79
24.89
24.07
22.53
20.60
18.72
17.20
16.14
15.34
14.47
13.26
11.70
10.04
8.60
7.60
7.01
6.49
5.62
4.02
1.55
-1.69
-5.37
-9.10
-12.53
-15.46
-17.84
-19.86
-21.83
-24.13
-27.13
-31.07
-35.94
-41.31
-46.35
-49.84
-50.55
-47.61
-40.87
-31.09
-19.72
-8.46
1.29
8.79
13.95
17.16
18.91
19.62
19.54
18.85
17.79
16.62
15.58
14.78
14.14
13.47
12.57
11.40
10.10
8.95
8.18
7.83
7.69
7.38
6.47
4.75
2.26
-0.71
-3.78
-6.63
-9.15
-11.46
-13.81
-16.58
-20.13
-24.66
-30.05
-35.75
-40.71
-43.68
-43.56
-39.84
-32.85
-23.68
-13.82
-4.63
2.98
8.74
12.87
15.81
18.02
19.78
21.20
22.26
22.93
23.21
23.19
23.03
22.93
23.02
23.34
23.79
24.14
24.18
23.75
22.75
21.20
19.13
16.59
13.59
10.16
6.34
2.16
-2.37
-7.33
-12.86
-19.07
-25.83
-32.65
-38.56
-42.36
-42.89
-39.52
-32.43
-22.61
-11.61
-1.07
7.74
14.15
18.12
20.06
20.57
20.19
19.37
18.36
17.37
16.56
16.07
15.98
16.28
16.89
17.62
18.23
18.48
18.19
17.29
15.85
14.05
12.13
10.33
8.81
7.62
6.67
5.76
4.63
3.00
0.70
-2.25
-5.61
-8.89
-11.40
-12.47
-11.68
-9.01
-4.92
-0.17
4.45
8.29
11.04
12.60
12.97
12.16
10.16
7.05
3.22
-0.72
-4.02
-6.12
-6.88
-6.60
-5.92
-5.46
-5.59
-6.35
-7.44
-8.49
-9.22
-9.56
-9.65
-9.75
-10.15
-11.11
-12.82
-15.33
-18.57
-22.12
-25.25
-26.96
-26.20
-22.25
-15.06
-5.34
5.61
16.28
25.47
32.50
37.33
40.24
41.62
41.75
40.81
38.94
36.41
33.57
30.78
28.27
26.01
23.83
21.51
18.95
16.31
13.89
12.03
10.85
10.24
9.85
9.28
8.28
6.82
5.03
3.06
1.00
-1.12
-3.12
-4.60
-4.94
-3.44
0.41
6.67
14.83
23.97
32.91
40.53
45.94
48.54
47.97
44.21
37.55
28.75
19.22
10.83
5.20
2.90
2.79
2.27
-1.54
-10.21
-22.89
-36.48
-47.07
-51.87
-50.60
-45.38
-39.50
-35.62
-34.77
-36.33
-38.96
-41.58
-43.70
-45.16
-45.59
-44.20
-40.16
-33.10
-23.53
-12.87
-2.91
4.87
9.75
11.86
11.86
10.60
8.70
6.49
4.07
1.48
-1.18
-3.70
-5.86
-7.48
-8.53
-9.05
-9.12
-8.83
-8.26
-7.51
-6.78
-6.38
-6.61
-7.76
-9.99
-13.40
-18.05
-23.93
-30.84
-38.25
-45.24
-50.60
-53.13
-52.04
-47.19
-39.23
-29.36
-19.05
-9.64
-2.12
2.99
5.63
6.05
4.75
2.25
-0.90
-4.27
-7.53
-10.40
-12.68
-14.22
-14.98
-15.06
-14.68
-14.11
-13.65
-13.58
-14.13
-15.46
-17.54
-20.10
-22.59
-24.20
-24.15
-21.89
-17.36
-11.00
-3.67
3.62
10.00
14.91
18.16
19.87
20.33
19.90
18.94
17.73
16.42
15.06
13.59
11.91
9.95
7.72
5.38
3.19
1.43
0.31
-0.16
-0.18
-0.11
-0.46
-1.72
-4.25
-8.12
-12.93
-17.83
-21.64
-23.16
-21.60
-16.83
-9.49
-0.72
8.18
16.15
22.54
27.12
29.97
31.35
31.56
30.92
29.75
28.32
26.77
25.10
23.29
21.28
19.12
16.97
15.06
13.64
12.87
12.74
13.05
13.39
13.23
12.03
9.44
5.47
0.61
-4.23
-7.90
-9.40
-8.17
-4.35
1.34
7.76
13.75
18.44
21.37
22.54
22.26
20.97
19.10
16.96
14.73
12.43
10.01
7.40
4.59
1.70
-1.08
-3.52
-5.46
-6.88
-7.86
-8.59
-9.27
-10.13
-11.37
-13.19
-15.65
-18.54
-21.31
-23.11
-22.99
-20.25
-14.79
-7.18
1.42
9.69
16.54
21.37
24.16
25.27
25.20
24.42
23.26
21.96
20.72
19.78
19.34
19.58
20.53
22.08
23.96
25.83
27.31
28.13
28.16
27.38
25.84
23.65
20.88
17.68
14.37
11.42
9.49
9.20
10.89
14.49
19.45
24.88
29.87
33.72
36.08
36.93
36.38
34.55
31.47
27.16
21.79
15.67
9.32
3.32
-1.84
-5.87
-8.70
-10.38
-11.08
-11.00
-10.41
-9.64
-9.10
-9.13
-10.02
-11.87
-14.57
-17.79
-20.91
-23.14
-23.67
-21.87
-17.59
-11.26
-3.85
3.35
9.15
12.79
14.08
13.33
11.19
8.31
5.18
2.13
-0.73
-3.33
-5.63
-7.56
-9.07
-10.14
-10.82
-11.27
-11.67
-12.21
-13.02
-14.25
-15.97
-18.26
-21.15
-24.55
-28.15
-31.37
-33.46
-33.67
-31.51
-27.01
-20.73
-13.59
-6.62
-0.61
4.02
7.23
9.20
10.19
10.40
9.96
9.02
7.73
6.21
4.54
2.72
0.76
-1.32
-3.42
-5.41
-7.18
-8.71
-10.08
-11.45
-13.01
-14.94
-17.38
-20.35
-23.65
-26.83
-29.15
-29.82
-28.25
-24.29
-18.39
-11.47
-4.67
1.04
5.04
7.15
7.56
6.63
4.80
2.42
-0.22
-2.95
-5.67
-8.31
-10.81
-13.01
-14.72
-15.72
-15.88
-15.21
-13.89
-12.31
-10.93
-10.27
-10.74
-12.53
-15.44
-18.87
-21.85
-23.32
-22.44
-18.91
-13.04
-5.72
1.93
8.87
14.36
18.07
20.00
20.42
19.70
18.22
16.30
14.19
12.00
9.78
7.53
5.25
2.97
0.77
-1.25
-2.99
-4.39
-5.45
-6.28
-7.06
-8.13
-9.87
-12.58
-16.30
-20.64
-24.80
-27.70
-28.39
-26.33
-21.68
-15.20
-7.99
-1.13
4.64
9.01
12.01
13.83
14.67
14.71
14.14
13.21
12.17
11.26
10.58
10.10
9.72
9.34
8.94
8.54
8.17
7.81
7.32
6.51
5.19
3.19
0.45
-2.94
-6.68
-10.22
-12.79
-13.61
-12.12
-8.30
-2.66
3.82
10.05
15.10
18.48
20.17
20.51
19.99
19.03
17.94
16.80
15.57
14.15
12.40
10.31
7.94
5.47
3.12
1.08
-0.57
-1.82
-2.77
-3.58
-4.46
-5.69
-7.53
-10.16
-13.49
-17.07
-20.09
-21.60
-20.73
-17.12
-11.04
-3.39
4.61
11.77
17.23
20.68
22.25
22.38
21.52
20.05
18.17
15.95
13.48
10.88
8.32
5.95
3.87
2.09
0.55
-0.76
-1.83
-2.60
-3.02
-3.20
-3.39
-4.00
-5.44
-7.95
-11.38
-15.13
-18.31
-19.96
-19.42
-16.56
-11.77
-5.87
0.24
5.80
10.28
13.45
15.23
15.67
14.93
13.25
10.96
8.39
5.84
3.43
1.19
-0.92
-2.94
-4.84
-6.49
-7.75
-8.51
-8.80
-8.84
-9.04
-9.90
-11.89
-15.25
-19.83
-25.01
-29.74
-32.77
-33.03
-30.03
-24.00
-15.93
-7.17
1.02
7.80
12.90
16.50
18.97
20.62
21.57
21.83
21.34
20.20
18.58
16.73
14.83
12.93
11.01
8.99
6.86
4.71
2.74
1.18
0.18
-0.29
-0.42
-0.54
-1.08
-2.45
-4.96
-8.71
-13.43
-18.43
-22.64
-24.86
-24.16
-20.26
-13.62
-5.36
3.17
10.85
17.11
21.91
25.51
28.18
29.95
30.64
30.03
28.06
24.92
21.04
16.97
13.23
10.22
8.17
7.16
7.11
7.83
9.06
10.51
11.91
12.98
13.46
13.06
11.51
8.64
4.38
-1.09
-7.36
-13.76
-19.45
-23.56
-25.34
-24.45
-20.99
-15.58
-9.12
-2.54
3.46
8.57
12.75
16.07
18.52
19.99
20.34
19.61
18.03
16.05
14.08
12.38
10.95
9.61
8.15
6.49
4.74
3.07
1.63
0.32
-1.17
-3.25
-6.17
-9.95
-14.26
-18.64
-22.63
-25.95
-28.61
-30.79
-32.81
-34.98
-37.52
-40.54
-43.91
-47.15
-49.44
-49.74
-47.08
-41.03
-31.92
-20.83
-9.29
1.25
9.88
16.39
21.14
24.76
27.71
30.14
31.92
32.78
32.61
31.50
29.77
27.80
25.93
24.33
23.06
22.09
21.38
20.88
20.51
20.20
19.84
19.34
18.67
17.81
16.75
15.40
13.68
11.47
8.80
5.82
2.79
0.00
-2.40
-4.48
-6.44
-8.58
-11.17
-14.38
-18.20
-22.40
-26.43
-29.52
-30.76
-29.44
-25.34
-18.87
-11.02
-3.07
3.88
9.14
12.58
14.50
15.36
15.57
15.39
14.92
14.19
13.25
12.14
10.93
9.65
8.29
6.81
5.21
3.56
2.02
0.75
-0.14
-0.68
-1.02
-1.38
-1.97
-2.89
-4.16
-5.70
-7.45
-9.33
-11.32
-13.38
-15.44
-17.40
-19.14
-20.56
-21.63
-22.43
-23.20
-24.23
-25.84
-28.19
-31.11
-34.05
-36.12
-36.36
-34.01
-28.82
-21.20
-12.10
-2.71
5.88
12.91
18.15
21.75
24.07
25.47
26.17
26.22
25.62
24.40
22.73
20.87
19.13
17.73
16.76
16.16
15.80
15.57
15.42
15.36
15.41
15.54
15.65
15.56
15.07
14.00
12.25
9.87
7.11
4.31
1.88
0.07
-1.09
-1.82
-2.56
-3.81
-5.99
-9.35
-13.90
-19.30
-24.87
-29.61
-32.39
-32.28
-28.91
-22.65
-14.58
-6.16
1.30
7.00
10.77
12.92
13.94
14.18
13.75
12.64
10.87
8.60
6.16
3.93
2.21
1.06
0.39
-0.01
-0.38
-0.83
-1.33
-1.73
-1.88
-1.75
-1.51
-1.52
-2.20
-3.83
-6.41
-9.59
-12.80
-15.46
-17.27
-18.35
-19.11
-20.16
-22.01
-24.89
-28.70
-32.99
-37.01
-39.81
-40.48
-38.30
-33.09
-25.25
-15.76
-5.85
3.27
10.80
16.41
20.24
22.61
23.88
24.29
23.98
23.05
21.65
19.99
18.26
16.62
15.17
13.93
12.86
11.94
11.16
10.50
9.91
9.28
8.47
7.39
5.98
4.29
2.34
0.14
-2.38
-5.33
-8.72
-12.42
-16.12
-19.46
-22.13
-24.07
-25.44
-26.58
-27.94
-29.93
-32.85
-36.78
-41.44
-46.03
-49.40
-50.18
-47.33
-40.52
-30.36
-18.23
-5.88
5.16
13.91
20.08
23.90
25.93
26.72
26.78
26.44
25.89
25.16
24.27
23.19
22.00
20.79
19.65
18.66
17.83
17.20
16.83
16.74
16.91
17.12
17.06
16.39
14.94
12.75
10.09
7.28
4.54
1.88
-0.86
-3.88
-7.28
-10.98
-14.73
-18.25
-21.30
-23.82
-25.95
-28.01
-30.41
-33.56
-37.74
-42.90
-48.53
-53.53
-56.46
-55.90
-51.00
-41.82
-29.41
-15.50
-1.96
9.76
18.92
25.49
29.84
32.48
33.86
34.27
33.93
33.04
31.80
30.38
28.87
27.36
25.87
24.41
23.06
21.93
21.16
20.84
20.95
21.25
21.42
21.06
19.89
17.89
15.23
12.25
9.26
6.36
3.46
0.31
-3.31
-7.44
-11.88
-16.23
-20.11
-23.28
-25.76
-27.79
-29.80
-32.24
-35.57
-40.08
-45.71
-51.88
-57.36
-60.48
-59.55
-53.53
-42.52
-27.82
-11.59
3.84
16.72
26.26
32.60
36.46
38.66
39.86
40.42
40.46
40.01
39.08
37.70
35.97
34.00
31.93
29.92
28.09
26.55
25.34
24.45
23.77
23.18
22.48
21.49
20.06
18.04
15.38
12.09
8.23
3.93
-0.65
-5.30
-9.79
-13.90
-17.45
-20.40
-22.93
-25.41
-28.39
-32.42
-37.76
-44.17
-50.72
-55.84
-57.75
-55.03
-47.17
-34.90
-20.01
-4.74
8.89
19.65
27.25
32.11
34.91
36.25
36.47
35.77
34.31
32.31
30.05
27.75
25.53
23.42
21.36
19.34
17.38
15.60
14.16
13.20
12.77
12.73
12.74
12.36
11.15
8.86
5.54
1.50
-2.75
-6.74
-10.18
-13.06
-15.61
-18.23
-21.35
-25.38
-30.53
-36.67
-43.20
-48.97
-52.46
-52.21
-47.37
-38.05
-25.44
-11.39
2.09
13.49
22.09
27.91
31.42
33.18
33.59
32.91
31.31
29.05
26.43
23.82
21.52
19.68
18.26
17.14
16.16
15.24
14.44
13.86
13.54
13.34
12.94
11.93
9.99
7.05
3.37
-0.56
-4.23
-7.25
-9.58
-11.50
-13.56
-16.42
-20.62
-26.26
-32.81
-39.06
-43.36
-44.16
-40.52
-32.56
-21.41
-8.82
3.41
13.92
22.04
27.70
31.10
32.50
32.16
30.39
27.65
24.49
21.41
18.70
16.40
14.30
12.20
10.08
8.10
6.58
5.78
5.65
5.85
5.80
4.94
2.97
-0.05
-3.76
-7.62
-11.19
-14.27
-16.88
-19.32
-22.02
-25.48
-30.08
-35.87
-42.30
-48.17
-51.82
-51.64
-46.68
-37.10
-24.19
-9.95
3.56
14.84
23.26
28.96
32.55
34.63
35.65
35.80
35.15
33.80
31.93
29.85
27.81
26.00
24.40
22.87
21.27
19.56
17.94
16.69
16.03
15.90
15.89
15.35
13.69
10.65
6.45
1.65
-3.05
-7.15
-10.46
-13.19
-15.76
-18.69
-22.43
-27.31
-33.34
-40.07
-46.46
-51.04
-52.23
-48.94
-41.03
-29.46
-15.97
-2.55
9.21
18.47
25.11
29.51
32.16
33.47
33.74
33.21
32.12
30.72
29.19
27.62
25.96
24.11
21.98
19.60
17.11
14.79
12.94
11.76
11.25
11.09
10.78
9.71
7.52
4.17
0.09
-4.10
-7.78
-10.66
-12.88
-14.91
-17.38
-20.82
-25.50
-31.23
-37.38
-42.87
-46.37
-46.58
-42.66
-34.59
-23.25
-10.30
2.38
13.23
21.36
26.70
29.68
30.97
31.12
30.49
29.26
27.56
25.54
23.40
21.30
19.30
17.37
15.41
13.37
11.36
9.60
8.37
7.83
7.89
8.13
7.99
6.90
4.58
1.15
-2.91
-6.98
-10.49
-13.22
-15.30
-17.21
-19.54
-22.85
-27.38
-32.87
-38.50
-42.98
-44.84
-42.96
-36.95
-27.41
-15.76
-3.79
6.90
15.35
21.31
25.12
27.28
28.19
28.09
27.08
25.27
22.92
20.35
17.88
15.70
13.84
12.24
10.78
9.47
8.36
7.57
7.15
7.04
6.95
6.48
5.26
3.05
-0.06
-3.72
-7.41
-10.70
-13.39
-15.62
-17.82
-20.56
-24.32
-29.27
-35.09
-40.84
-45.16
-46.61
-44.09
-37.38
-27.18
-15.00
-2.64
8.31
16.88
22.78
26.28
27.94
28.36
28.01
27.18
26.00
24.49
22.60
20.38
17.97
15.56
13.39
11.61
10.28
9.38
8.81
8.45
8.09
7.48
6.36
4.51
1.91
-1.28
-4.73
-8.05
-10.98
-13.50
-15.86
-18.54
-22.10
-26.90
-32.74
-38.78
-43.50
-45.21
-42.61
-35.40
-24.45
-11.60
1.00
11.61
19.40
24.42
27.28
28.70
29.16
28.88
27.97
26.57
24.93
23.24
21.59
19.88
17.96
15.79
13.50
11.44
9.92
9.11
8.83
8.65
8.08
6.74
4.55
1.72
-1.39
-4.46
-7.30
-9.91
-12.44
-15.13
-18.30
-22.22
-27.02
-32.44
-37.70
-41.50
-42.41
-39.30
-31.99
-21.37
-9.19
2.57
12.38
19.56
24.25
27.06
28.63
29.31
29.22
28.40
26.93
25.05
23.03
21.10
19.36
17.81
16.41
15.15
14.08
13.23
12.59
12.08
11.53
10.78
9.74
8.40
6.80
4.95
2.80
0.28
-2.68
-6.00
-9.47
-12.79
-15.71
-18.12
-20.15
-22.07
-24.27
-27.16
-31.00
-35.82
-41.20
-46.23
-49.57
-49.85
-46.15
-38.42
-27.62
-15.47
-3.85
5.77
12.62
16.69
18.43
18.42
17.15
15.00
12.28
9.25
6.14
3.11
0.20
-2.57
-5.18
-7.47
-9.22
-10.20
-10.30
-9.61
-8.46
-7.28
-6.59
-6.79
-8.07
-10.38
-13.47
-16.96
-20.52
-23.99
-27.42
-31.04
-35.10
-39.58
-43.97
-47.29
-48.25
-45.71
-39.18
-29.04
-16.52
-3.33
8.92
19.09
26.72
31.90
35.04
36.66
37.28
37.45
37.70
38.50
40.10
42.40
45.01
47.36
48.88
49.25
48.46
46.81
44.80
42.91
41.45
40.41
39.45
38.04
35.66
32.07
27.41
22.12
16.73
11.67
7.07
2.79
-1.50
-6.15
-11.53
-17.89
-25.26
-33.26
-40.89
-46.64
-48.87
-46.35
-38.84
-27.38
-13.90
-0.72
10.28
18.10
22.68
24.60
24.68
23.62
21.86
19.69
17.28
14.79
12.32
9.90
7.50
5.09
2.67
0.40
-1.51
-2.86
-3.59
-3.87
-4.04
-4.52
-5.60
-7.39
-9.77
-12.45
-15.09
-17.43
-19.36
-20.93
-22.39
-24.07
-26.29
-29.11
-32.13
-34.45
-34.84
-32.21
-26.06
-16.80
-5.66
5.70
15.72
23.42
28.46
31.09
31.74
30.89
28.89
26.06
22.80
19.53
16.66
14.45
12.87
11.68
10.56
9.25
7.74
6.24
5.06
4.42
4.33
4.51
4.51
3.85
2.22
-0.39
-3.69
-7.21
-10.45
-13.11
-15.16
-16.92
-18.89
-21.62
-25.53
-30.68
-36.63
-42.36
-46.41
-47.22
-43.67
-35.54
-23.74
-10.08
3.29
14.59
22.86
28.04
30.68
31.48
30.97
29.45
27.15
24.39
21.56
18.99
16.81
14.89
12.94
10.72
8.26
5.86
3.98
3.00
2.98
3.60
4.22
4.15
2.91
0.44
-2.92
-6.53
-9.77
-12.25
-14.00
-15.40
-17.05
-19.59
-23.43
-28.59
-34.46
-39.84
-43.08
-42.63
-37.61
-28.21
-15.76
-2.33
9.98
19.65
26.09
29.56
30.75
30.41
29.07
27.05
24.56
21.82
19.08
16.53
14.24
12.12
10.06
7.97
5.91
4.15
2.96
2.54
2.77
3.24
3.36
2.62
0.84
-1.82
-4.90
-7.90
-10.54
-12.81
-14.96
-17.39
-20.52
-24.60
-29.58
-34.93
-39.59
-42.14
-41.20
-36.00
-26.77
-14.84
-2.17
9.23
17.99
23.68
26.63
27.60
27.30
26.19
24.50
22.35
19.88
17.32
14.88
12.72
10.92
9.50
8.41
7.57
6.90
6.26
5.52
4.55
3.28
1.68
-0.22
-2.42
-4.87
-7.55
-10.43
-13.50
-16.79
-20.37
-24.40
-28.88
-33.56
-37.73
-40.30
-40.04
-36.08
-28.30
-17.50
-5.25
6.57
16.35
23.16
26.87
28.01
27.38
25.79
23.76
21.55
19.20
16.67
13.98
11.22
8.57
6.20
4.26
2.79
1.80
1.20
0.87
0.63
0.26
-0.46
-1.72
-3.56
-5.87
-8.41
-10.95
-13.35
-15.67
-18.18
-21.28
-25.35
-30.42
-35.96
-40.80
-43.33
-42.10
-36.36
-26.50
-14.02
-1.02
10.53
19.40
25.32
28.73
30.33
30.68
30.06
28.56
26.34
23.70
21.08
18.79
16.92
15.28
13.57
11.59
9.44
7.47
6.12
5.64
5.91
6.44
6.56
5.69
3.66
0.62
-2.93
-6.49
-9.65
-12.29
-14.55
-16.79
-19.52
-23.23
-28.16
-33.98
-39.70
-43.72
-44.36
-40.47
-32.02
-20.17
-6.88
5.75
16.19
23.78
28.65
31.37
32.54
32.55
31.60
29.85
27.52
24.88
22.25
19.87
17.88
16.26
14.89
13.60
12.26
10.85
9.50
8.37
7.57
7.09
6.66
5.92
4.50
2.19
-0.92
-4.48
-8.01
-11.05
-13.38
-15.09
-16.54
-18.25
-20.76
-24.47
-29.47
-35.41
-41.41
-46.12
-48.02
-45.87
-39.20
-28.62
-15.69
-2.44
9.29
18.39
24.60
28.33
30.27
30.92
30.56
29.26
27.14
24.44
21.56
18.88
16.68
14.98
13.62
12.35
10.99
9.51
8.10
7.01
6.50
6.60
7.07
7.41
7.04
5.53
2.78
-0.89
-4.91
-8.60
-11.54
-13.66
-15.24
-16.85
-19.08
-22.42
-27.03
-32.72
-38.75
-43.89
-46.66
-45.74
-40.47
-31.18
-19.17
-6.28
5.65
15.38
22.44
26.98
29.46
30.30
29.74
27.99
25.29
22.08
18.83
15.94
13.58
11.61
9.74
7.69
5.38
3.00
0.92
-0.51
-1.15
-1.21
-1.16
-1.60
-2.93
-5.26
-8.34
-11.67
-14.73
-17.13
-18.71
-19.61
-20.18
-20.90
-22.30
-24.71
-28.09
-31.84
-34.78
-35.48
-32.70
-25.96
-15.74
-3.47
9.02
20.05
28.59
34.42
37.91
39.68
40.28
40.02
39.03
37.39
35.26
32.86
30.45
28.18
26.10
24.09
22.00
19.72
17.29
14.89
12.80
11.32
10.54
10.32
10.20
9.59
7.91
4.87
0.62
-4.31
-9.18
-13.34
-16.45
-18.63
-20.36
-22.28
-25.01
-28.98
-34.24
-40.38
-46.40
-50.83
-52.06
-48.84
-40.85
-28.99
-15.09
-1.37
10.35
19.15
25.11
28.89
31.25
32.62
33.10
32.57
31.03
28.72
26.05
23.47
21.28
19.57
18.20
16.98
15.77
14.51
13.31
12.32
11.70
11.45
11.41
11.24
10.50
8.86
6.20
2.69
-1.25
-5.16
-8.67
-11.66
-14.26
-16.76
-19.51
-22.89
-27.18
-32.54
-38.81
-45.29
-50.74
-53.50
-52.09
-45.73
-34.83
-20.94
-6.23
7.20
17.96
25.62
30.48
33.17
34.25
34.04
32.73
30.53
27.79
24.95
22.41
20.39
18.87
17.63
16.36
14.89
13.23
11.59
10.24
9.39
8.98
8.80
8.48
7.76
6.46
4.55
2.06
-1.01
-4.61
-8.61
-12.66
-16.37
-19.40
-21.68
-23.51
-25.48
-28.28
-32.40
-37.89
-44.12
-49.86
-53.50
-53.45
-48.74
-39.42
-26.64
-12.33
1.44
13.04
21.70
27.45
30.83
32.49
32.93
32.47
31.31
29.68
27.83
25.95
24.11
22.28
20.37
18.33
16.26
14.35
12.79
11.71
11.06
10.66
10.28
9.74
8.95
7.90
6.56
4.79
2.39
-0.78
-4.64
-8.86
-12.95
-16.40
-18.98
-20.75
-22.05
-23.38
-25.28
-28.23
-32.42
-37.66
-43.13
-47.46
-48.98
-46.32
-38.98
-27.65
-14.03
-0.26
11.79
21.12
27.57
31.60
33.84
34.78
34.70
33.78
32.26
30.41
28.46
26.54
24.65
22.70
20.62
18.45
16.31
14.33
12.68
11.46
10.71
10.40
10.34
10.19
9.52
7.93
5.24
1.60
-2.56
-6.68
-10.27
-13.08
-15.19
-16.88
-18.56
-20.60
-23.35
-27.03
-31.70
-37.03
-42.19
-45.88
-46.61
-43.27
-35.62
-24.50
-11.65
0.91
11.55
19.41
24.47
27.23
28.31
28.12
26.93
24.94
22.44
19.86
17.58
15.79
14.43
13.22
11.85
10.20
8.40
6.82
5.82
5.57
5.91
6.38
6.38
5.40
3.28
0.21
-3.33
-6.79
-9.78
-12.13
-13.95
-15.56
-17.34
-19.68
-22.89
-27.06
-31.88
-36.51
-39.67
-39.99
-36.48
-29.04
-18.56
-6.70
4.71
14.21
21.12
25.50
27.83
28.69
28.45
27.34
25.47
23.06
20.41
17.82
15.48
13.42
11.52
9.65
7.79
6.10
4.88
4.38
4.57
5.15
5.56
5.20
3.72
1.11
-2.32
-6.03
-9.55
-12.58
-15.10
-17.33
-19.70
-22.72
-26.81
-32.00
-37.72
-42.78
-45.55
-44.60
-39.18
-29.65
-17.40
-4.38
7.55
17.19
24.14
28.62
31.15
32.19
32.06
30.99
29.23
27.08
24.87
22.84
21.03
19.35
17.61
15.65
13.44
11.17
9.17
7.77
7.16
7.21
7.45
7.25
6.03
3.53
-0.05
-4.13
-8.03
-11.24
-13.65
-15.51
-17.36
-19.77
-23.18
-27.77
-33.38
-39.34
-44.52
-47.48
-46.85
-41.82
-32.58
-20.37
-7.15
5.10
14.98
22.01
26.50
29.11
30.44
30.77
30.16
28.70
26.66
24.41
22.31
20.47
18.72
16.78
14.47
11.90
9.45
7.60
6.71
6.78
7.46
8.12
8.12
7.01
4.73
1.62
-1.76
-4.83
-7.27
-9.15
-10.89
-13.08
-16.24
-20.62
-26.06
-31.87
-36.99
-40.13
-40.09
-36.23
-28.68
-18.39
-6.89
4.18
13.50
20.39
24.75
26.94
27.45
26.80
25.39
23.51
21.39
19.14
16.77
14.25
11.58
8.83
6.20
3.96
2.34
1.39
0.95
0.66
0.10
-1.08
-2.99
-5.51
-8.32
-11.09
-13.57
-15.72
-17.70
-19.80
-22.38
-25.74
-29.94
-34.71
-39.23
-42.33
-42.76
-39.60
-32.73
-22.89
-11.53
-0.31
9.37
16.75
21.66
24.42
25.49
25.37
24.48
23.19
21.85
20.66
19.66
18.67
17.42
15.73
13.60
11.32
9.31
7.91
7.28
7.25
7.47
7.50
7.00
5.85
4.09
1.91
-0.48
-2.91
-5.31
-7.72
-10.38
-13.59
-17.70
-22.86
-28.75
-34.49
-38.73
-39.98
-37.22
-30.29
-20.02
-8.00
3.99
14.49
22.69
28.42
31.91
33.59
33.86
33.09
31.64
29.84
27.95
26.11
24.27
22.30
20.05
17.47
14.72
12.11
10.02
8.67
8.07
7.92
7.71
6.93
5.23
2.57
-0.75
-4.25
-7.44
-10.06
-12.19
-14.24
-16.85
-20.62
-25.87
-32.29
-38.88
-44.08
-46.20
-44.04
-37.32
-26.91
-14.49
-2.06
8.74
17.00
22.57
25.84
27.40
27.72
27.14
25.88
24.16
22.17
20.07
17.93
15.80
13.70
11.70
9.92
8.55
7.67
7.26
7.14
6.99
6.46
5.27
3.33
0.77
-2.10
-4.92
-7.47
-9.70
-11.83
-14.25
-17.38
-21.52
-26.60
-32.00
-36.58
-38.92
-37.73
-32.39
-23.22
-11.51
0.97
12.51
21.94
28.81
33.23
35.60
36.29
35.61
33.83
31.26
28.29
25.27
22.44
19.82
17.28
14.65
11.91
9.23
6.95
5.42
4.77
4.78
4.94
4.58
3.21
0.72
-2.58
-6.12
-9.36
-11.99
-14.08
-15.98
-18.20
-21.24
-25.44
-30.79
-36.75
-42.14
-45.35
-44.77
-39.44
-29.51
-16.31
-1.94
11.48
22.42
30.28
35.23
37.83
38.59
37.89
36.00
33.26
30.14
27.12
24.56
22.48
20.64
18.67
16.30
13.51
10.57
7.94
6.03
4.98
4.58
4.27
3.35
1.28
-2.13
-6.63
-11.62
-16.43
-20.55
-23.81
-26.43
-28.85
-31.60
-35.13
-39.70
-45.23
-51.14
-56.30
-59.22
-58.43
-53.04
-43.22
-30.19
-15.92
-2.41
8.86
17.32
23.10
26.73
28.73
29.42
28.98
27.61
25.62
23.44
21.38
19.60
18.02
16.41
14.59
12.58
10.60
9.03
8.14
7.88
7.88
7.53
6.32
4.05
0.98
-2.36
-5.42
-7.91
-9.93
-11.88
-14.33
-17.78
-22.44
-28.11
-34.06
-39.09
-41.73
-40.69
-35.31
-25.92
-13.83
-0.91
10.94
20.37
26.81
30.37
31.64
31.27
29.86
27.89
25.72
23.63
21.76
20.11
18.53
16.81
14.79
12.49
10.10
7.95
6.37
5.49
5.15
4.99
4.49
3.25
1.11
-1.78
-5.04
-8.21
-10.98
-13.24
-15.19
-17.24
-19.95
-23.77
-28.87
-34.81
-40.47
-44.22
-44.43
-40.06
-31.16
-18.94
-5.41
7.31
17.63
24.85
29.08
30.88
30.90
29.62
27.42
24.61
21.56
18.63
16.04
13.87
12.02
10.35
8.77
7.35
6.19
5.36
4.83
4.39
3.77
2.74
1.20
-0.77
-2.98
-5.25
-7.45
-9.64
-12.03
-14.90
-18.54
-23.07
-28.34
-33.76
-38.38
-40.97
-40.43
-36.10
-28.11
-17.40
-5.49
5.96
15.62
22.77
27.32
29.60
30.14
29.42
27.80
25.49
22.66
19.47
16.12
12.82
9.81
7.30
5.43
4.21
3.54
3.16
2.80
2.18
1.09
-0.56
-2.71
-5.16
-7.70
-10.13
-12.36
-14.47
-16.69
-19.36
-22.85
-27.39
-32.86
-38.59
-43.32
-45.51
-43.76
-37.47
-27.16
-14.39
-1.27
10.31
19.16
25.02
28.26
29.54
29.43
28.33
26.52
24.26
21.84
19.48
17.24
15.11
12.99
10.88
8.86
7.15
5.94
5.30
5.10
4.99
4.53
3.33
1.24
-1.62
-4.90
-8.17
-11.12
-13.70
-16.11
-18.76
-22.13
-26.55
-31.94
-37.69
-42.60
-45.15
-43.96
-38.38
-28.78
-16.49
-3.43
8.57
18.25
25.15
29.47
31.75
32.56
32.32
31.30
29.67
27.60
25.26
22.82
20.42
18.16
16.09
14.23
12.60
11.22
10.10
9.20
8.36
7.35
5.91
3.88
1.27
-1.71
-4.75
-7.62
-10.28
-12.93
-15.95
-19.82
-24.86
-31.02
-37.61
-43.34
-46.50
-45.61
-39.95
-29.98
-17.25
-3.82
8.37
18.12
25.11
29.63
32.17
33.11
32.66
30.98
28.36
25.23
22.06
19.24
16.95
15.18
13.79
12.61
11.53
10.55
9.75
9.23
9.02
8.92
8.57
7.48
5.33
2.09
-1.88
-5.99
-9.67
-12.60
-14.86
-16.90
-19.35
-22.77
-27.50
-33.40
-39.76
-45.31
-48.51
-47.89
-42.67
-33.07
-20.40
-6.63
6.22
16.66
24.11
28.73
31.15
31.97
31.61
30.31
28.28
25.84
23.33
21.05
19.06
17.23
15.34
13.25
11.02
8.90
7.21
6.13
5.59
5.31
4.86
3.85
2.02
-0.62
-3.88
-7.37
-10.73
-13.69
-16.22
-18.53
-21.00
-24.07
-28.10
-33.15
-38.79
-44.06
-47.54
-47.79
-43.82
-35.53
-23.83
-10.46
2.61
13.82
22.32
28.04
31.38
32.85
32.80
31.46
29.07
26.00
22.77
19.86
17.58
15.94
14.69
13.56
12.39
11.23
10.29
9.76
9.61
9.57
9.20
8.03
5.84
2.72
-0.96
-4.68
-8.00
-10.73
-12.99
-15.19
-17.86
-21.52
-26.39
-32.22
-38.14
-42.78
-44.59
-42.34
-35.67
-25.29
-12.79
-0.07
11.26
20.30
26.86
31.21
33.71
34.61
34.04
32.18
29.41
26.24
23.20
20.61
18.54
16.82
15.23
13.65
12.11
10.84
10.00
9.67
9.63
9.47
8.72
7.03
4.31
0.84
-2.94
-6.54
-9.61
-12.11
-14.24
-16.41
-19.10
-22.71
-27.48
-33.31
-39.64
-45.40
-49.14
-49.40
-45.23
-36.58
-24.45
-10.66
2.76
14.15
22.63
28.14
31.16
32.35
32.25
31.24
29.58
27.53
25.34
23.22
21.25
19.37
17.46
15.48
13.49
11.66
10.19
9.19
8.58
8.08
7.34
6.02
3.95
1.17
-2.10
-5.51
-8.72
-11.59
-14.22
-16.94
-20.27
-24.68
-30.29
-36.61
-42.50
-46.37
-46.66
-42.43
-33.76
-21.87
-8.67
3.80
14.07
21.48
26.16
28.69
29.68
29.56
28.53
26.72
24.27
21.43
18.49
15.67
13.06
10.68
8.48
6.45
4.68
3.25
2.18
1.35
0.45
-0.92
-3.06
-6.05
-9.66
-13.51
-17.19
-20.54
-23.69
-27.08
-31.22
-36.45
-42.64
-49.03
-54.31
-56.95
-55.68
-49.94
-40.16
-27.61
-14.03
-1.10
9.96
18.63
24.94
29.29
32.19
34.13
35.41
36.16
36.37
35.91
34.68
32.73
30.28
27.69
25.32
23.39
21.88
20.62
19.29
17.62
15.44
12.75
9.68
6.42
3.14
-0.09
-3.33
-6.71
-10.45
-14.78
-19.84
-25.55
-31.40
-36.41
-39.29
-38.78
-34.16
-25.63
-14.35
-2.17
9.02
17.81
23.60
26.58
27.43
26.94
25.76
24.24
22.51
20.62
18.59
16.50
14.44
12.55
10.94
9.64
8.64
7.85
7.14
6.37
5.41
4.19
2.69
0.96
-0.94
-2.99
-5.26
-7.82
-10.80
-14.30
-18.44
-23.27
-28.68
-34.16
-38.79
-41.28
-40.42
-35.54
-26.91
-15.78
-3.95
6.79
15.22
20.92
24.14
25.43
25.35
24.26
22.36
19.80
16.80
13.62
10.56
7.83
5.56
3.76
2.41
1.47
0.90
0.68
0.69
0.75
0.60
-0.03
-1.28
-3.11
-5.35
-7.77
-10.23
-12.77
-15.59
-19.03
-23.38
-28.65
-34.32
-39.31
-42.10
-41.21
-35.76
-25.91
-12.91
1.22
14.43
25.19
32.91
37.80
40.55
41.89
42.31
42.09
41.31
40.08
38.50
36.69
34.75
32.70
30.56
28.38
26.24
24.24
22.46
20.85
19.25
17.44
15.25
12.60
9.55
6.27
2.91
-0.44
-3.79
-7.25
-11.00
-15.23
-20.06
-25.31
-30.35
-34.15
-35.39
-33.02
-26.68
-17.01
-5.54
5.83
15.44
22.38
26.56
28.49
28.87
28.19
26.65
24.22
20.92
16.88
12.44
8.03
4.02
0.64
-2.04
-4.09
-5.64
-6.84
-7.78
-8.57
-9.28
-10.00
-10.80
-11.73
-12.83
-14.11
-15.56
-17.27
-19.36
-22.05
-25.38
-29.11
-32.54
-34.59
-34.09
-30.26
-23.10
-13.50
-3.02
6.68
14.39
19.62
22.60
23.93
24.19
23.71
22.50
20.48
17.69
14.36
10.92
7.82
5.35
3.57
2.30
1.19
-0.03
-1.51
-3.21
-4.93
-6.45
-7.64
-8.59
-9.50
-10.68
-12.41
-14.87
-18.19
-22.36
-27.22
-32.29
-36.70
-39.31
-38.96
-34.93
-27.33
-17.16
-6.03
4.32
12.64
18.40
21.78
23.35
23.78
23.50
22.70
21.42
19.64
17.41
14.92
12.42
10.17
8.31
6.83
5.57
4.30
2.87
1.22
-0.50
-2.12
-3.51
-4.70
-5.83
-7.18
-9.00
-11.51
-14.85
-19.06
-23.97
-29.08
-33.47
-35.94
-35.42
-31.32
-23.92
-14.31
-4.04
5.38
12.95
18.34
21.78
23.72
24.62
24.73
24.17
23.01
21.29
19.13
16.67
14.04
11.43
9.00
6.87
5.09
3.61
2.29
0.96
-0.49
-2.08
-3.76
-5.47
-7.18
-8.98
-10.99
-13.38
-16.34
-20.00
-24.39
-29.31
-34.21
-38.15
-39.97
-38.68
-33.82
-25.75
-15.60
-4.92
4.87
12.80
18.61
22.52
24.99
26.45
27.14
27.20
26.68
25.68
24.27
22.51
20.41
17.97
15.28
12.54
10.00
7.88
6.22
4.88
3.57
2.08
0.36
-1.47
-3.23
-4.83
-6.36
-8.05
-10.20
-13.05
-16.77
-21.40
-26.80
-32.50
-37.61
-40.91
-41.15
-37.51
-30.02
-19.63
-8.03
2.99
12.03
18.47
22.48
24.68
25.79
26.36
26.65
26.69
26.41
25.70
24.47
22.71
20.46
17.83
15.04
12.36
10.06
8.29
7.06
6.18
5.33
4.21
2.60
0.46
-2.05
-4.69
-7.25
-9.60
-11.81
-14.06
-16.69
-20.05
-24.37
-29.54
-34.95
-39.47
-41.71
-40.48
-35.31
-26.68
-15.94
-4.87
5.00
12.75
18.28
22.02
24.60
26.46
27.75
28.40
28.32
27.55
26.25
24.67
22.99
21.23
19.29
17.06
14.53
11.96
9.70
8.15
7.42
7.34
7.41
7.04
5.76
3.43
0.23
-3.40
-6.96
-10.07
-12.58
-14.60
-16.41
-18.45
-21.14
-24.82
-29.54
-34.90
-40.00
-43.55
-44.24
-41.18
-34.27
-24.37
-12.98
-1.77
7.94
15.50
20.92
24.58
26.93
28.30
28.87
28.80
28.26
27.46
26.49
25.31
23.74
21.58
18.79
15.54
12.21
9.32
7.30
6.33
6.26
6.62
6.75
6.05
4.18
1.21
-2.41
-6.04
-9.16
-11.54
-13.34
-14.99
-17.03
-19.88
-23.78
-28.61
-33.82
-38.47
-41.30
-41.07
-37.03
-29.22
-18.60
-6.79
4.50
14.01
21.21
26.23
29.58
31.74
32.98
33.43
33.14
32.29
31.12
29.86
28.58
27.16
25.43
23.22
20.62
17.95
15.64
14.09
13.42
13.44
13.59
13.24
11.84
9.18
5.39
0.95
-3.55
-7.61
-11.00
-13.84
-16.55
-19.69
-23.76
-28.95
-34.98
-40.98
-45.64
-47.51
-45.49
-39.21
-29.27
-17.11
-4.56
6.72
15.66
21.90
25.71
27.64
28.28
28.04
27.16
25.80
24.06
22.04
19.80
17.36
14.69
11.80
8.78
5.80
3.11
0.97
-0.53
-1.47
-2.21
-3.19
-4.73
-6.92
-9.52
-12.14
-14.42
-16.31
-18.01
-19.96
-22.64
-26.35
-31.14
-36.65
-42.17
-46.57
-48.60
-47.11
-41.56
-32.29
-20.49
-7.90
3.74
13.22
20.12
24.63
27.29
28.63
28.98
28.54
27.46
25.94
24.17
22.28
20.25
17.94
15.23
12.13
8.88
5.86
3.46
1.88
1.01
0.48
-0.19
-1.38
-3.26
-5.73
-8.47
-11.15
-13.50
-15.49
-17.34
-19.50
-22.46
-26.61
-31.89
-37.64
-42.58
-45.14
-43.97
-38.47
-29.06
-17.14
-4.56
6.91
16.08
22.50
26.38
28.22
28.60
27.98
26.65
24.80
22.56
20.01
17.19
14.16
11.04
7.97
5.17
2.84
1.08
-0.15
-1.07
-1.96
-3.09
-4.60
-6.52
-8.72
-11.10
-13.60
-16.26
-19.21
-22.63
-26.68
-31.49
-37.00
-42.85
-48.27
-52.16
-53.30
-50.83
-44.68
-35.67
-25.37
-15.55
-7.57
-2.06
1.20
2.88
3.73
4.18
4.29
3.84
2.61
0.58
-2.04
-4.83
-7.40
-9.51
-11.16
-12.64
-14.25
-16.21
-18.43
-20.64
-22.50
-23.80
-24.64
-25.38
-26.43
-28.16
-30.74
-34.26
-38.67
-43.76
-49.03
-53.61
-56.36
-56.14
-52.19
-44.45
-33.56
-20.66
-7.02
6.29
18.54
29.33
38.48
45.95
51.73
55.89
58.50
59.67
59.57
58.45
56.64
54.53
52.47
50.68
49.21
47.92
46.57
44.81
42.32
38.87
34.40
29.08
23.35
17.79
12.99
9.26
6.55
4.35
1.88
-1.66
-6.75
-13.27
-20.41
-26.73
-30.56
-30.51
-25.97
-17.40
-6.20
5.69
16.47
24.91
30.59
33.80
35.11
35.11
34.14
32.37
29.86
26.75
23.25
19.67
16.32
13.44
11.18
9.52
8.35
7.52
6.84
6.23
5.68
5.24
5.02
5.03
5.18
5.22
4.82
3.62
1.34
-2.15
-6.78
-12.18
-17.66
-22.19
-24.59
-23.85
-19.48
-11.77
-1.77
8.99
18.99
27.10
32.84
36.29
37.84
37.96
37.03
35.27
32.87
30.05
27.05
24.20
21.73
19.76
18.25
17.03
15.91
14.75
13.60
12.59
11.89
11.57
11.56
11.64
11.51
11.00
9.98
8.48
6.53
4.19
1.60
-0.96
-3.02
-3.97
-3.29
-0.75
3.42
8.57
13.79
18.27
21.47
23.22
23.64
22.92
21.21
18.53
14.92
10.53
5.75
1.15
-2.67
-5.30
-6.68
-7.13
-7.21
-7.48
-8.28
-9.64
-11.30
-12.94
-14.33
-15.46
-16.60
-18.09
-20.27
-23.35
-27.31
-31.82
-36.21
-39.53
-40.74
-39.02
-34.12
-26.49
-17.15
-7.42
1.53
8.92
14.39
17.92
19.62
19.60
18.06
15.28
11.67
7.69
3.69
-0.07
-3.48
-6.47
-8.96
-10.85
-12.08
-12.65
-12.65
-12.23
-11.60
-11.03
-10.84
-11.46
-13.32
-16.69
-21.50
-27.09
-32.21
-35.28
-34.89
-30.30
-21.85
-10.82
0.92
11.61
20.14
26.16
30.01
32.22
33.13
32.82
31.16
28.15
24.08
19.51
15.07
11.19
7.94
5.06
2.13
-1.13
-4.67
-8.16
-11.14
-13.23
-14.38
-14.91
-15.42
-16.54
-18.79
-22.37
-27.14
-32.61
-37.99
-42.36
-44.78
-44.56
-41.46
-35.78
-28.32
-20.16
-12.39
-5.79
-0.80
2.48
4.14
4.39
3.50
1.86
-0.05
-1.77
-3.03
-3.82
-4.38
-5.07
-6.16
-7.71
-9.54
-11.37
-12.91
-14.04
-14.84
-15.52
-16.43
-17.95
-20.38
-23.77
-27.72
-31.33
-33.29
-32.21
-27.13
-17.85
-5.12
9.55
24.31
37.51
48.10
55.71
60.51
62.92
63.30
61.87
58.79
54.32
48.90
43.14
37.63
32.71
28.39
24.37
20.29
15.92
11.31
6.75
2.57
-1.01
-4.06
-6.86
-9.85
-13.47
-18.10
-23.97
-31.03
-38.82
-46.37
-52.27
-55.01
-53.48
-47.42
-37.60
-25.57
-13.15
-1.87
7.38
14.39
19.36
22.60
24.34
24.73
23.95
22.39
20.52
18.78
17.38
16.16
14.72
12.63
9.67
6.06
2.31
-0.96
-3.30
-4.59
-5.11
-5.41
-6.15
-7.96
-11.29
-16.15
-22.01
-27.74
-31.83
-32.84
-29.92
-23.17
-13.60
-2.84
7.49
16.19
22.72
27.08
29.58
30.51
30.08
28.44
25.77
22.39
18.72
15.15
11.98
9.30
7.04
5.04
3.15
1.31
-0.43
-1.99
-3.29
-4.34
-5.23
-6.15
-7.31
-8.91
-11.17
-14.25
-18.26
-23.06
-28.18
-32.70
-35.45
-35.34
-31.71
-24.68
-15.12
-4.38
6.10
15.22
22.34
27.29
30.22
31.37
31.04
29.52
27.17
24.32
21.29
18.31
15.49
12.88
10.45
8.23
6.22
4.46
2.93
1.57
0.29
-0.97
-2.23
-3.47
-4.71
-6.06
-7.78
-10.16
-13.44
-17.67
-22.63
-27.72
-32.08
-34.70
-34.66
-31.45
-25.11
-16.33
-6.27
3.77
12.67
19.76
24.84
28.05
29.64
29.85
28.88
26.92
24.24
21.13
17.93
14.91
12.22
9.93
8.05
6.48
5.10
3.75
2.31
0.71
-1.01
-2.74
-4.34
-5.77
-7.16
-8.73
-10.78
-13.54
-17.14
-21.50
-26.30
-30.88
-34.33
-35.65
-33.97
-28.96
-21.00
-11.11
-0.66
9.05
17.09
23.02
26.85
28.79
29.11
28.12
26.13
23.50
20.59
17.70
15.02
12.61
10.44
8.52
6.83
5.39
4.18
3.13
2.13
1.08
-0.07
-1.35
-2.75
-4.25
-5.89
-7.72
-9.88
-12.56
-15.96
-20.19
-25.06
-29.95
-33.84
-35.53
-34.05
-29.02
-20.86
-10.73
-0.11
9.56
17.33
22.81
26.09
27.52
27.54
26.50
24.69
22.34
19.66
16.87
14.17
11.73
9.65
7.96
6.63
5.59
4.73
3.95
3.15
2.26
1.19
-0.10
-1.67
-3.53
-5.63
-7.92
-10.28
-12.69
-15.26
-18.24
-21.90
-26.26
-30.90
-34.84
-36.81
-35.68
-30.95
-22.98
-12.92
-2.31
7.48
15.52
21.49
25.46
27.67
28.37
27.79
26.17
23.80
21.04
18.17
15.41
12.84
10.45
8.25
6.29
4.66
3.42
2.55
1.92
1.32
0.57
-0.41
-1.58
-2.80
-4.04
-5.33
-6.85
-8.79
-11.33
-14.52
-18.35
-22.64
-26.97
-30.61
-32.60
-31.94
-28.00
-20.79
-11.14
-0.43
9.79
18.25
24.30
27.88
29.38
29.27
28.01
25.89
23.11
19.85
16.34
12.83
9.58
6.81
4.67
3.19
2.27
1.73
1.32
0.79
-0.04
-1.25
-2.79
-4.55
-6.41
-8.25
-10.08
-11.97
-14.07
-16.63
-19.85
-23.92
-28.78
-33.91
-38.33
-40.75
-39.95
-35.27
-26.95
-16.14
-4.52
6.19
14.83
20.91
24.64
26.55
27.14
26.75
25.50
23.43
20.63
17.31
13.80
10.46
7.59
5.33
3.66
2.43
1.44
0.50
-0.47
-1.51
-2.55
-3.58
-4.66
-5.89
-7.37
-9.22
-11.47
-14.20
-17.49
-21.40
-25.83
-30.34
-34.02
-35.71
-34.34
-29.39
-21.22
-11.06
-0.62
8.50
15.28
19.46
21.36
21.53
20.44
18.33
15.31
11.55
7.43
3.49
0.24
-1.99
-3.22
-3.69
-3.79
-3.85
-4.01
-4.33
-4.74
-5.21
-5.77
-6.54
-7.63
-9.16
-11.23
-13.92
-17.33
-21.51
-26.30
-31.16
-35.18
-37.23
-36.29
-31.86
-24.25
-14.46
-3.96
5.84
13.94
19.93
23.92
26.24
27.19
26.94
25.51
22.94
19.46
15.52
11.71
8.56
6.37
5.05
4.21
3.35
2.10
0.38
-1.59
-3.48
-5.04
-6.26
-7.38
-8.78
-10.85
-13.85
-17.95
-23.15
-29.24
-35.66
-41.43
-45.26
-45.87
-42.41
-34.88
-24.15
-11.76
0.56
11.42
19.98
26.04
29.82
31.77
32.30
31.72
30.23
27.95
25.04
21.69
18.23
15.01
12.30
10.21
8.61
7.21
5.76
4.13
2.36
0.62
-0.96
-2.43
-4.03
-6.15
-9.12
-13.22
-18.49
-24.70
-31.29
-37.31
-41.57
-42.90
-40.49
-34.22
-24.76
-13.39
-1.59
9.30
18.46
25.57
30.70
34.06
35.85
36.22
35.24
33.07
30.01
26.48
22.97
19.92
17.57
15.91
14.66
13.43
11.87
9.85
7.44
4.90
2.53
0.45
-1.37
-3.19
-5.38
-8.30
-12.25
-17.38
-23.56
-30.29
-36.62
-41.25
-42.81
-40.29
-33.44
-22.94
-10.26
2.80
14.64
24.20
31.16
35.68
38.22
39.21
38.95
37.61
35.33
32.29
28.73
24.94
21.23
17.88
15.09
12.95
11.44
10.39
9.54
8.61
7.36
5.69
3.63
1.30
-1.17
-3.74
-6.53
-9.75
-13.65
-18.43
-24.09
-30.27
-36.21
-40.73
-42.53
-40.57
-34.43
-24.60
-12.36
0.52
12.35
21.93
28.76
32.97
35.01
35.38
34.49
32.63
30.01
26.86
23.45
20.07
16.98
14.37
12.37
10.95
10.00
9.35
8.74
7.96
6.84
5.31
3.35
1.06
-1.46
-4.08
-6.72
-9.38
-12.20
-15.51
-19.63
-24.76
-30.64
-36.47
-40.93
-42.58
-40.33
-33.89
-23.96
-11.99
0.23
11.14
19.75
25.74
29.33
30.96
31.12
30.21
28.57
26.47
24.15
21.78
19.46
17.21
15.08
13.13
11.43
10.06
9.05
8.27
7.52
6.55
5.11
3.09
0.49
-2.52
-5.68
-8.78
-11.68
-14.45
-17.34
-20.73
-24.98
-30.21
-36.05
-41.60
-45.53
-46.47
-43.50
-36.55
-26.48
-14.84
-3.34
6.68
14.50
20.06
23.64
25.60
26.15
25.46
23.73
21.37
18.92
16.97
15.92
15.88
16.61
17.65
18.52
18.89
18.71
18.14
17.49
16.93
16.44
15.77
14.55
12.45
9.36
5.45
1.07
-3.30
-7.30
-10.70
-13.47
-15.78
-17.94
-20.34
-23.44
-27.54
-32.59
-38.00
-42.66
-45.15
-44.20
-39.18
-30.42
-19.13
-7.01
4.32
13.76
20.87
25.80
28.89
30.55
31.04
30.59
29.42
27.78
25.92
24.05
22.26
20.61
19.13
17.81
16.64
15.59
14.61
13.70
12.86
12.11
11.43
10.66
9.58
7.94
5.63
2.69
-0.63
-4.04
-7.25
-10.15
-12.76
-15.25
-17.89
-20.94
-24.67
-29.17
-34.25
-39.31
-43.32
-45.04
-43.42
-38.00
-29.16
-18.10
-6.44
4.29
13.05
19.49
23.80
26.39
27.68
27.90
27.21
25.81
23.96
21.97
20.07
18.37
16.88
15.58
14.49
13.68
13.19
12.98
12.86
12.60
11.99
10.96
9.56
7.89
6.03
3.93
1.50
-1.30
-4.42
-7.64
-10.70
-13.35
-15.53
-17.34
-19.04
-20.97
-23.47
-26.78
-30.94
-35.67
-40.20
-43.45
-44.17
-41.42
-34.97
-25.43
-14.19
-2.90
6.97
14.59
19.78
22.90
24.46
24.81
24.15
22.52
20.07
17.10
14.05
11.37
9.33
7.98
7.16
6.64
6.24
5.85
5.45
4.99
4.39
3.53
2.32
0.79
-0.92
-2.61
-4.13
-5.40
-6.50
-7.59
-8.80
-10.16
-11.58
-12.91
-14.02
-14.89
-15.69
-16.72
-18.38
-20.98
-24.52
-28.60
-32.30
-34.39
-33.70
-29.53
-21.94
-11.81
-0.57
10.21
19.29
25.98
30.16
32.13
32.39
31.47
29.86
27.94
26.00
24.24
22.73
21.48
20.46
19.63
18.99
18.53
18.29
18.27
18.37
18.48
18.36
17.82
16.71
15.03
12.84
10.29
7.49
4.51
1.38
-1.89
-5.19
-8.42
-11.44
-14.16
-16.62
-18.89
-21.06
-23.20
-25.40
-27.79
-30.60
-34.01
-37.91
-41.66
-44.14
-43.98
-40.20
-32.62
-22.17
-10.52
0.48
9.41
15.74
19.66
21.74
22.51
22.22
20.91
18.59
15.53
12.23
9.26
7.08
5.83
5.30
5.12
4.90
4.52
4.07
3.84
4.05
4.73
5.61
6.20
5.97
4.64
2.22
-0.96
-4.39
-7.56
-10.16
-12.13
-13.66
-15.12
-16.95
-19.49
-22.92
-27.10
-31.50
-35.24
-37.25
-36.57
-32.64
-25.58
-16.18
-5.69
4.51
13.28
19.89
24.12
26.08
26.10
24.63
22.12
19.05
15.80
12.68
9.83
7.31
5.07
3.10
1.44
0.19
-0.54
-0.66
-0.21
0.64
1.58
2.20
2.15
1.22
-0.58
-3.03
-5.74
-8.36
-10.65
-12.63
-14.54
-16.81
-19.83
-23.76
-28.32
-32.69
-35.66
-35.98
-32.81
-26.08
-16.56
-5.69
4.95
14.02
20.76
25.01
27.08
27.39
26.38
24.38
21.62
18.32
14.76
11.26
8.13
5.62
3.86
2.80
2.28
2.02
1.78
1.33
0.59
-0.49
-1.89
-3.55
-5.41
-7.44
-9.60
-11.88
-14.39
-17.25
-20.70
-24.92
-29.82
-34.84
-38.95
-40.78
-39.17
-33.55
-24.33
-12.79
-0.70
10.30
19.07
25.20
28.86
30.52
30.63
29.57
27.56
24.77
21.39
17.66
13.90
10.44
7.60
5.52
4.21
3.45
2.92
2.34
1.50
0.35
-1.07
-2.69
-4.50
-6.53
-8.81
-11.40
-14.31
-17.60
-21.41
-25.92
-31.16
-36.82
-42.00
-45.35
-45.45
-41.32
-32.93
-21.31
-8.25
4.31
14.90
22.79
27.99
30.94
32.15
31.95
30.54
28.13
25.00
21.55
18.22
15.37
13.16
11.59
10.48
9.62
8.77
7.78
6.60
5.25
3.78
2.21
0.53
-1.37
-3.62
-6.30
-9.50
-13.26
-17.67
-22.81
-28.59
-34.54
-39.64
-42.54
-41.87
-36.81
-27.54
-15.26
-1.87
10.68
20.95
28.30
32.85
35.16
35.79
35.14
33.41
30.75
27.38
23.63
19.95
16.73
14.22
12.48
11.34
10.53
9.71
8.62
7.14
5.32
3.30
1.29
-0.62
-2.46
-4.44
-6.82
-9.88
-13.82
-18.73
-24.56
-30.95
-37.17
-42.04
-44.17
-42.38
-36.18
-26.07
-13.49
-0.35
11.51
20.88
27.32
31.06
32.69
32.78
31.75
29.81
27.10
23.82
20.25
16.81
13.92
11.87
10.68
10.07
9.61
8.87
7.64
5.92
3.93
1.92
0.00
-1.86
-3.82
-6.07
-8.79
-12.15
-16.31
-21.37
-27.23
-33.36
-38.69
-41.79
-41.30
-36.45
-27.47
-15.62
-2.75
9.26
19.06
26.13
30.59
32.92
33.60
32.91
31.00
28.03
24.28
20.17
16.15
12.62
9.81
7.75
6.30
5.23
4.24
3.10
1.68
-0.00
-1.84
-3.66
-5.38
-7.00
-8.66
-10.55
-12.91
-15.97
-19.93
-24.80
-30.30
-35.66
-39.64
-40.82
-38.06
-31.01
-20.30
-7.45
5.62
17.21
26.23
32.34
35.75
37.00
36.69
35.36
33.44
31.25
28.95
26.60
24.17
21.62
18.99
16.43
14.17
12.36
11.03
10.02
9.03
7.73
5.91
3.49
0.54
-2.80
-6.39
-10.13
-14.00
-18.04
-22.41
-27.33
-33.00
-39.34
-45.80
-51.23
-54.14
-53.14
-47.57
-37.78
-25.10
-11.40
1.45
12.16
20.16
25.57
28.85
30.58
31.16
30.85
29.76
28.01
25.73
23.14
20.52
18.13
16.12
14.55
13.39
12.54
11.88
11.29
10.66
9.82
8.61
6.93
4.75
2.16
-0.70
-3.71
-6.84
-10.21
-14.02
-18.47
-23.49
-28.57
-32.74
-34.73
-33.38
-28.09
-19.14
-7.63
4.79
16.46
26.09
33.07
37.32
39.21
39.24
37.93
35.77
33.18
30.50
27.99
25.77
23.83
22.12
20.56
19.13
17.79
16.56
15.45
14.39
13.28
11.90
10.05
7.56
4.43
0.85
-2.84
-6.32
-9.45
-12.35
-15.38
-19.00
-23.50
-28.80
-34.29
-38.91
-41.38
-40.61
-36.04
-27.92
-17.28
-5.66
5.33
14.40
20.90
24.77
26.36
26.19
24.71
22.25
19.08
15.49
11.78
8.30
5.36
3.12
1.57
0.53
-0.26
-1.04
-1.96
-3.08
-4.37
-5.82
-7.44
-9.33
-11.57
-14.18
-17.12
-20.26
-23.53
-26.96
-30.59
-34.35
-37.82
-40.14
-40.24
-37.20
-30.71
-21.34
-10.42
0.39
9.62
16.41
20.65
22.73
23.26
22.70
21.33
19.22
16.47
13.31
10.13
7.42
5.58
4.75
4.79
5.28
5.68
5.59
4.82
3.50
1.97
0.53
-0.67
-1.74
-2.99
-4.80
-7.48
-11.19
-15.89
-21.31
-26.87
-31.71
-34.70
-34.80
-31.35
-24.43
-14.89
-4.17
6.17
14.87
21.30
25.43
27.65
28.48
28.33
27.46
25.95
23.90
21.46
18.90
16.57
14.80
13.75
13.37
13.42
13.56
13.51
13.16
12.52
11.72
10.84
9.87
8.71
7.12
4.86
1.69
-2.58
-7.97
-14.21
-20.64
-26.20
-29.59
-29.63
-25.70
-18.02
-7.70
3.55
13.98
22.27
27.85
30.82
31.66
30.86
28.76
25.51
21.29
16.39
11.26
6.36
2.08
-1.41
-4.10
-6.11
-7.61
-8.74
-9.58
-10.17
-10.53
-10.67
-10.62
-10.54
-10.65
-11.23
-12.59
-14.95
-18.40
-22.85
-27.85
-32.60
-35.95
-36.65
-33.85
-27.42
-18.18
-7.59
2.71
11.47
18.15
22.84
25.93
27.70
28.18
27.20
24.73
21.08
16.89
12.93
9.83
7.82
6.69
5.94
5.00
3.46
1.25
-1.38
-3.99
-6.14
-7.59
-8.42
-8.97
-9.81
-11.51
-14.55
-19.16
-25.16
-31.89
-38.23
-42.74
-44.07
-41.34
-34.58
-24.69
-13.25
-1.96
7.82
15.37
20.60
23.77
25.23
25.21
23.89
21.50
18.41
15.16
12.30
10.17
8.81
7.94
7.10
5.87
4.10
1.93
-0.31
-2.34
-4.09
-5.86
-8.17
-11.63
-16.72
-23.60
-32.02
-41.27
-50.14
-57.08
-60.49
-59.21
-52.93
-42.40
-29.25
-15.49
-2.88
7.48
15.23
20.52
23.67
24.93
24.49
22.61
19.75
16.53
13.55
11.13
9.28
7.70
6.02
4.03
1.81
-0.31
-1.88
-2.60
-2.42
-1.65
-0.87
-0.80
-2.09
-5.15
-9.89
-15.63
-21.10
-24.71
-25.02
-21.27
-13.73
-3.62
7.27
17.20
25.04
30.48
33.82
35.62
36.30
35.98
34.62
32.23
29.07
25.59
22.27
19.42
17.04
14.88
12.56
9.85
6.78
3.61
0.75
-1.48
-2.97
-3.95
-4.91
-6.45
-9.09
-13.14
-18.53
-24.77
-30.97
-35.93
-38.35
-37.26
-32.36
-24.20
-14.13
-3.86
5.12
11.93
16.52
19.35
21.11
22.27
22.93
22.94
22.09
20.34
17.91
15.17
12.50
10.10
7.91
5.69
3.18
0.30
-2.70
-5.32
-7.03
-7.53
-6.95
-5.86
-5.10
-5.45
-7.37
-10.98
-16.00
-21.82
-27.56
-32.06
-34.06
-32.47
-26.76
-17.30
-5.40
7.02
18.00
26.17
31.12
33.31
33.68
33.15
32.26
31.10
29.53
27.42
24.81
21.94
19.06
16.37
13.88
11.50
9.09
6.58
3.97
1.36
-1.09
-3.26
-5.09
-6.62
-8.01
-9.48
-11.26
-13.52
-16.38
-19.86
-23.91
-28.30
-32.45
-35.44
-36.08
-33.31
-26.68
-16.70
-4.75
7.23
17.48
24.92
29.41
31.50
31.99
31.48
30.21
28.16
25.29
21.75
17.89
14.06
10.49
7.10
3.64
-0.19
-4.46
-8.91
-13.00
-16.11
-17.76
-17.84
-16.66
-14.84
-13.12
-12.14
-12.32
-13.82
-16.52
-20.00
-23.57
-26.33
-27.29
-25.61
-20.94
-13.56
-4.41
5.16
13.75
20.33
24.45
26.21
26.09
24.65
22.34
19.42
16.10
12.59
9.21
6.32
4.21
2.93
2.20
1.55
0.50
-1.24
-3.60
-6.21
-8.59
-10.40
-11.61
-12.48
-13.46
-14.99
-17.34
-20.52
-24.27
-28.04
-31.12
-32.75
-32.32
-29.56
-24.63
-18.12
-10.88
-3.77
2.54
7.64
11.39
13.75
14.75
14.41
12.83
10.24
7.05
3.73
0.73
-1.66
-3.46
-4.88
-6.30
-8.00
-10.08
-12.38
-14.65
-16.63
-18.27
-19.79
-21.53
-23.91
-27.27
-31.76
-37.28
-43.31
-48.97
-53.05
-54.33
-51.92
-45.71
-36.42
-25.48
-14.51
-4.83
2.95
8.85
13.29
16.67
19.11
20.45
20.53
19.49
17.86
16.46
16.06
17.01
19.11
21.68
23.93
25.26
25.55
25.04
24.13
23.13
22.07
20.78
19.02
16.64
13.56
9.80
5.36
0.25
-5.41
-11.20
-16.39
-19.97
-20.94
-18.64
-13.10
-5.02
4.33
13.54
21.40
27.22
30.88
32.71
33.18
32.72
31.52
29.62
27.04
23.93
20.64
17.60
15.14
13.34
11.96
10.61
8.93
6.81
4.45
2.23
0.54
-0.48
-1.04
-1.59
-2.70
-4.84
-8.25
-12.92
-18.59
-24.70
-30.44
-34.70
-36.33
-34.44
-28.77
-19.88
-9.13
1.82
11.44
18.80
23.68
26.38
27.42
27.25
26.13
24.19
21.56
18.40
14.98
11.60
8.51
5.88
3.73
1.92
0.25
-1.49
-3.36
-5.23
-6.80
-7.83
-8.28
-8.43
-8.84
-10.12
-12.70
-16.70
-21.82
-27.41
-32.53
-36.10
-37.08
-34.73
-28.90
-20.16
-9.69
1.06
10.76
18.57
24.25
27.96
30.03
30.70
30.03
28.07
24.99
21.14
17.06
13.28
10.15
7.75
5.89
4.26
2.61
0.84
-0.92
-2.47
-3.64
-4.40
-4.95
-5.64
-6.88
-9.05
-12.39
-16.98
-22.56
-28.50
-33.78
-37.08
-37.20
-33.43
-25.87
-15.49
-3.86
7.33
16.80
23.93
28.75
31.65
33.07
33.28
32.34
30.29
27.30
23.74
20.10
16.81
14.06
11.77
9.67
7.51
5.20
2.92
0.98
-0.32
-0.86
-0.79
-0.50
-0.47
-1.21
-3.07
-6.27
-10.77
-16.23
-21.88
-26.60
-29.09
-28.29
-23.74
-15.86
-5.87
4.59
14.00
21.34
26.36
29.35
30.82
31.21
30.68
29.20
26.72
23.41
19.63
15.87
12.51
9.72
7.31
4.98
2.43
-0.40
-3.25
-5.73
-7.47
-8.35
-8.62
-8.79
-9.51
-11.28
-14.43
-18.93
-24.44
-30.23
-35.27
-38.35
-38.38
-34.74
-27.60
-17.84
-6.93
3.57
12.43
18.99
23.16
25.22
25.60
24.65
22.66
19.80
16.29
12.43
8.55
5.02
2.15
0.06
-1.29
-2.14
-2.76
-3.37
-4.05
-4.74
-5.37
-5.90
-6.44
-7.20
-8.39
-10.15
-12.56
-15.65
-19.43
-23.83
-28.51
-32.81
-35.74
-36.20
-33.36
-27.03
-17.80
-6.98
3.88
13.36
20.58
25.32
27.83
28.63
28.18
26.76
24.51
21.54
18.07
14.42
10.98
8.00
5.60
3.68
2.04
0.54
-0.88
-2.16
-3.24
-4.09
-4.75
-5.34
-5.98
-6.74
-7.68
-8.83
-10.33
-12.37
-15.23
-19.01
-23.49
-27.92
-31.15
-31.94
-29.38
-23.31
-14.43
-4.11
6.06
14.74
21.14
25.13
27.06
27.43
26.73
25.26
23.20
20.64
17.72
14.65
11.67
9.00
6.79
5.08
3.81
2.91
2.28
1.82
1.41
0.95
0.28
-0.70
-2.02
-3.64
-5.52
-7.61
-9.99
-12.85
-16.40
-20.66
-25.31
-29.51
-32.11
-31.98
-28.41
-21.51
-12.18
-1.89
7.82
15.82
21.57
25.14
26.92
27.33
26.70
25.16
22.81
19.84
16.56
13.40
10.74
8.80
7.56
6.77
6.09
5.21
4.00
2.52
0.97
-0.49
-1.76
-2.92
-4.15
-5.67
-7.68
-10.32
-13.67
-17.64
-21.97
-26.09
-29.19
-30.31
-28.70
-24.09
-16.87
-8.05
1.09
9.35
15.96
20.66
23.63
25.20
25.61
24.93
23.18
20.40
16.88
13.10
9.62
6.82
4.88
3.64
2.79
1.98
1.03
-0.10
-1.30
-2.41
-3.37
-4.16
-4.93
-5.87
-7.23
-9.26
-12.18
-16.04
-20.67
-25.53
-29.70
-32.06
-31.56
-27.66
-20.52
-11.08
-0.77
8.89
16.72
22.15
25.23
26.37
26.06
24.68
22.42
19.39
15.76
11.84
8.05
4.83
2.43
0.83
-0.25
-1.20
-2.32
-3.70
-5.19
-6.54
-7.52
-8.14
-8.61
-9.30
-10.64
-12.94
-16.35
-20.75
-25.66
-30.29
-33.60
-34.56
-32.49
-27.33
-19.68
-10.65
-1.54
6.57
12.98
17.43
19.96
20.77
20.07
18.07
15.06
11.36
7.37
3.46
-0.10
-3.15
-5.73
-7.97
-10.06
-12.11
-14.06
-15.75
-16.97
-17.61
-17.75
-17.64
-17.65
-18.14
-19.41
-21.62
-24.77
-28.59
-32.45
-35.39
-36.26
-34.12
-28.64
-20.26
-10.17
0.07
9.08
15.98
20.58
23.17
24.20
24.04
22.89
20.80
17.89
14.37
10.67
7.22
4.36
2.21
0.61
-0.74
-2.13
-3.70
-5.38
-6.97
-8.25
-9.20
-10.03
-11.14
-12.98
-15.92
-20.12
-25.45
-31.44
-37.24
-41.64
-43.28
-41.06
-34.46
-23.89
-10.63
3.53
16.77
27.82
36.08
41.68
45.08
46.81
47.20
46.34
44.23
40.93
36.72
32.06
27.49
23.44
20.15
17.57
15.51
13.77
12.27
11.00
10.08
9.50
9.18
8.84
8.13
6.65
4.11
0.30
-4.84
-11.14
-18.11
-24.92
-30.41
-33.27
-32.44
-27.50
-18.87
-7.80
3.94
14.68
23.25
29.24
32.90
34.80
35.47
35.17
33.91
31.63
28.42
24.55
20.51
16.77
13.68
11.29
9.41
7.71
5.90
3.81
1.48
-0.90
-3.11
-5.00
-6.59
-8.08
-9.77
-11.96
-14.96
-18.98
-24.04
-29.90
-35.86
-40.76
-43.18
-41.87
-36.24
-26.64
-14.43
-1.48
10.38
19.89
26.65
30.92
33.25
34.18
34.00
32.81
30.65
27.69
24.23
20.67
17.38
14.57
12.27
10.36
8.69
7.13
5.60
4.07
2.56
1.03
-0.57
-2.34
-4.39
-6.81
-9.71
-13.18
-17.32
-22.20
-27.71
-33.40
-38.39
-41.49
-41.50
-37.67
-30.01
-19.41
-7.38
4.41
14.57
22.30
27.46
30.34
31.45
31.31
30.29
28.63
26.48
23.94
21.14
18.23
15.41
12.88
10.77
9.10
7.74
6.48
5.04
3.23
1.00
-1.58
-4.30
-6.92
-9.25
-11.19
-12.73
-14.03
-15.37
-17.22
-20.07
-24.25
-29.54
-35.06
-39.30
-40.64
-37.92
-30.95
-20.65
-8.68
3.12
13.37
21.42
27.31
31.41
34.08
35.52
35.74
34.82
32.96
30.52
27.88
25.24
22.65
19.99
17.19
14.37
11.84
10.01
9.16
9.25
9.87
10.38
10.13
8.71
6.07
2.51
-1.49
-5.43
-8.99
-12.11
-14.97
-17.93
-21.38
-25.59
-30.53
-35.74
-40.28
-42.90
-42.38
-38.01
-29.91
-19.10
-7.20
4.08
13.49
20.46
25.13
27.99
29.57
30.18
29.91
28.77
26.85
24.39
21.71
19.09
16.67
14.40
12.21
10.07
8.08
6.48
5.49
5.16
5.33
5.58
5.40
4.37
2.34
-0.51
-3.74
-6.79
-9.28
-11.11
-12.52
-14.01
-16.17
-19.42
-23.81
-28.92
-33.80
-37.19
-37.84
-34.91
-28.38
-19.05
-8.42
1.87
10.52
16.91
21.09
23.48
24.56
24.61
23.77
22.12
19.89
17.40
15.05
13.11
11.65
10.55
9.54
8.42
7.16
5.87
4.82
4.21
4.08
4.20
4.14
3.40
1.67
-1.05
-4.43
-7.95
-11.09
-13.57
-15.35
-16.71
-18.06
-19.87
-22.57
-26.41
-31.25
-36.47
-40.94
-43.31
-42.36
-37.53
-29.13
-18.34
-6.79
3.94
12.78
19.35
23.83
26.65
28.24
28.85
28.56
27.46
25.74
23.74
21.85
20.36
19.37
18.67
17.95
16.89
15.38
13.59
11.86
10.54
9.76
9.35
8.86
7.80
5.76
2.68
-1.15
-5.22
-8.99
-12.03
-14.26
-15.84
-17.16
-18.67
-20.78
-23.80
-27.89
-32.87
-38.13
-42.61
-44.95
-43.92
-38.90
-30.24
-19.18
-7.45
3.30
12.04
18.49
22.90
25.78
27.49
28.22
28.01
26.94
25.27
23.37
21.56
19.98
18.58
17.16
15.50
13.49
11.22
8.95
7.02
5.71
5.11
5.02
5.00
4.50
3.09
0.64
-2.65
-6.27
-9.69
-12.51
-14.70
-16.50
-18.36
-20.77
-24.08
-28.41
-33.47
-38.56
-42.52
-44.03
-41.96
-35.91
-26.36
-14.67
-2.60
8.26
16.89
22.99
26.78
28.71
29.14
28.33
26.51
24.02
21.30
18.78
16.75
15.19
13.84
12.31
10.34
7.95
5.48
3.43
2.22
2.00
2.47
3.02
2.94
1.73
-0.70
-3.99
-7.49
-10.54
-12.78
-14.23
-15.29
-16.55
-18.56
-21.74
-26.16
-31.49
-36.88
-41.09
-42.73
-40.65
-34.43
-24.58
-12.52
-0.12
10.89
19.38
25.01
28.08
29.18
28.86
27.52
25.39
22.71
19.78
16.92
14.37
12.18
10.24
8.40
6.57
4.81
3.31
2.25
1.69
1.48
1.32
0.83
-0.30
-2.22
-4.85
-7.91
-11.00
-13.78
-16.08
-18.03
-20.03
-22.65
-26.37
-31.34
-37.19
-42.97
-47.35
-48.91
-46.63
-40.26
-30.49
-18.76
-6.85
3.64
11.70
17.03
19.92
20.92
20.61
19.41
17.58
15.30
12.75
10.08
7.47
5.04
2.87
1.05
-0.37
-1.29
-1.64
-1.43
-0.77
0.12
0.89
1.17
0.63
-0.86
-3.23
-6.17
-9.27
-12.12
-14.55
-16.64
-18.83
-21.67
-25.65
-30.84
-36.64
-41.78
-44.64
-43.76
-38.41
-28.95
-16.69
-3.46
8.99
19.49
27.56
33.26
36.93
38.93
39.56
39.15
38.02
36.52
34.95
33.45
32.06
30.72
29.31
27.74
25.93
23.91
21.81
19.87
18.35
17.35
16.73
16.05
14.77
12.43
8.89
4.42
-0.44
-5.05
-8.97
-12.08
-14.60
-17.02
-19.93
-23.84
-29.01
-35.21
-41.59
-46.76
-49.07
-47.15
-40.46
-29.57
-16.03
-1.92
10.82
20.96
28.14
32.70
35.34
36.69
37.12
36.76
35.66
33.89
31.63
29.14
26.67
24.37
22.25
20.24
18.23
16.21
14.26
12.55
11.27
10.48
10.07
9.72
8.95
7.30
4.49
0.57
-4.08
-8.90
-13.28
-16.86
-19.60
-21.81
-24.02
-26.80
-30.64
-35.71
-41.77
-47.93
-52.77
-54.66
-52.24
-45.01
-33.59
-19.57
-5.06
8.06
18.59
26.21
31.27
34.40
36.16
36.91
36.80
35.92
34.40
32.42
30.26
28.19
26.41
24.94
23.66
22.37
20.90
19.23
17.52
16.03
14.89
14.04
13.16
11.80
9.58
6.38
2.41
-1.89
-6.00
-9.51
-12.27
-14.45
-16.44
-18.73
-21.82
-26.04
-31.49
-37.88
-44.44
-49.95
-52.93
-52.06
-46.66
-37.01
-24.40
-10.72
2.08
12.60
20.21
25.03
27.52
28.22
27.48
25.52
22.56
18.92
14.99
11.12
7.54
4.32
1.46
-0.97
-2.74
-3.53
-3.10
-1.39
1.27
4.29
6.92
8.45
8.48
6.96
4.28
1.05
-2.03
-4.47
-6.15
-7.35
-8.69
-10.93
-14.62
-19.85
-26.05
-31.98
-36.03
-36.64
-32.88
-24.79
-13.44
-0.60
11.83
22.37
30.26
35.44
38.28
39.25
38.71
36.90
34.06
30.52
26.71
23.04
19.79
17.01
14.61
12.41
10.33
8.49
7.10
6.34
6.21
6.42
6.42
5.64
3.74
0.71
-3.05
-6.98
-10.56
-13.50
-15.85
-17.93
-20.22
-23.24
-27.39
-32.75
-38.91
-44.83
-48.93
-49.53
-45.43
-36.50
-23.86
-9.54
4.20
15.60
23.86
29.03
31.69
32.49
31.90
30.22
27.73
24.81
21.88
19.27
17.08
15.17
13.31
11.33
9.29
7.40
5.94
5.04
4.62
4.38
3.89
2.80
0.93
-1.65
-4.70
-7.90
-11.00
-13.90
-16.68
-19.65
-23.18
-27.58
-32.80
-38.22
-42.61
-44.43
-42.33
-35.69
-25.04
-11.93
1.59
13.56
22.74
28.73
31.86
32.80
32.20
30.52
28.03
24.96
21.51
17.93
14.44
11.20
8.34
5.93
4.02
2.64
1.75
1.23
0.85
0.33
-0.57
-1.96
-3.80
-5.93
-8.12
-10.26
-12.37
-14.63
-17.38
-20.93
-25.51
-31.01
-36.85
-41.91
-44.72
-43.90
-38.63
-29.11
-16.59
-3.01
9.58
19.66
26.55
30.39
31.85
31.71
30.59
28.84
26.59
23.90
20.82
17.47
14.03
10.74
7.83
5.51
3.91
3.04
2.72
2.68
2.55
2.02
0.88
-0.88
-3.13
-5.66
-8.28
-10.95
-13.77
-16.93
-20.68
-25.22
-30.53
-36.17
-41.22
-44.35
-44.19
-39.82
-31.21
-19.39
-6.17
6.44
16.84
24.27
28.77
30.98
31.62
31.22
30.06
28.21
25.73
22.74
19.46
16.12
12.97
10.18
7.87
6.09
4.80
3.89
3.16
2.37
1.29
-0.22
-2.18
-4.51
-7.08
-9.79
-12.65
-15.76
-19.30
-23.51
-28.56
-34.46
-40.83
-46.82
-51.09
-52.16
-48.90
-41.03
-29.41
-15.80
-2.41
8.84
16.87
21.57
23.56
23.75
22.91
21.46
19.52
17.03
13.95
10.34
6.36
2.25
-1.71
-5.22
-7.94
-9.61
-10.05
-9.32
-7.67
-5.55
-3.45
-1.74
-0.61
-0.04
0.08
-0.18
-0.83
-2.04
-4.11
-7.39
-12.13
-18.25
-25.18
-31.72
-36.26
-37.22
-33.66
-25.68
-14.52
-2.11
9.56
19.09
25.98
30.45
33.12
34.54
35.08
34.90
34.13
32.98
31.70
30.49
29.38
28.23
26.84
25.11
23.14
21.20
19.63
18.62
18.13
17.84
17.20
15.67
12.87
8.74
3.57
-2.07
-7.53
-12.29
-16.20
-19.49
-22.78
-26.78
-32.02
-38.59
-45.89
-52.66
-57.17
-57.75
-53.34
-43.91
-30.60
-15.35
-0.34
12.69
22.82
29.99
34.68
37.55
39.09
39.61
39.32
38.48
37.41
36.39
35.55
34.82
33.98
32.79
31.14
29.11
26.91
24.80
22.95
21.39
20.01
18.63
17.00
14.89
12.05
8.39
4.01
-0.73
-5.31
-9.25
-12.34
-14.76
-17.04
-19.88
-23.89
-29.39
-36.19
-43.51
-49.98
-53.91
-53.73
-48.53
-38.52
-25.06
-10.25
3.70
15.20
23.64
29.25
32.70
34.66
35.50
35.36
34.35
32.67
30.73
28.94
27.58
26.62
25.82
24.82
23.37
21.49
19.45
17.62
16.34
15.64
15.24
14.65
13.31
10.86
7.27
2.82
-1.98
-6.58
-10.56
-13.78
-16.44
-18.93
-21.80
-25.51
-30.26
-35.85
-41.52
-46.05
-48.02
-46.24
-40.24
-30.47
-18.29
-5.57
5.94
15.03
21.27
24.92
26.59
26.90
26.31
25.05
23.33
21.38
19.48
17.86
16.56
15.44
14.20
12.58
10.54
8.32
6.31
4.88
4.14
3.84
3.45
2.47
0.58
-2.12
-5.23
-8.24
-10.79
-12.82
-14.60
-16.62
-19.40
-23.31
-28.36
-34.04
-39.34
-42.83
-43.12
-39.24
-31.15
-19.81
-6.97
5.44
15.84
23.42
28.13
30.41
30.81
29.74
27.50
24.40
20.83
17.26
14.07
11.43
9.33
7.64
6.25
5.18
4.47
4.15
4.08
4.01
3.63
2.69
1.11
-1.01
-3.46
-5.96
-8.30
-10.44
-12.49
-14.72
-17.44
-20.97
-25.38
-30.39
-35.24
-38.73
-39.49
-36.46
-29.30
-18.65
-6.00
6.74
17.86
26.26
31.68
34.39
34.96
33.93
31.71
28.63
25.03
21.27
17.68
14.45
11.62
9.18
7.09
5.40
4.19
3.49
3.19
3.03
2.73
2.05
0.95
-0.50
-2.15
-3.92
-5.85
-8.09
-10.80
-14.21
-18.50
-23.83
-30.14
-36.92
-43.07
-47.00
-47.05
-42.15
-32.34
-18.98
-4.29
9.36
20.23
27.61
31.80
33.57
33.76
32.94
31.36
29.07
26.10
22.45
18.16
13.31
8.07
2.80
-2.02
-5.96
-8.92
-11.18
-13.40
-16.29
-20.27
-25.34
-31.08
-37.00
-42.74
-48.30
-53.97
-60.13
-67.08
-74.98
-83.82
-93.33
-102.84
-111.11
-116.46
-117.26
-112.60
-102.90
-90.02
-76.64
-65.24
-57.10
-51.92
-48.06
-43.41
-36.24
-25.80
-12.29
3.38
20.09
36.75
52.44
66.54
78.68
88.79
97.00
103.51
108.44
111.80
113.55
113.73
112.61
110.63
108.27
105.88
103.55
101.19
98.64
95.89
93.09
90.47
88.16
86.11
84.05
81.69
78.85
75.60
72.23
69.08
66.35
63.97
61.63
58.91
55.46
51.17
46.26
41.16
36.36
32.19
28.74
25.78
22.96
19.94
16.57
12.99
9.49
6.38
3.89
2.02
0.61
-0.62
-1.92
-3.50
-5.43
-7.68
-10.11
-12.56
-14.84
-16.85
-18.51
-19.85
-20.88
-21.64
-22.11
-22.29
-22.15
-21.73
-21.09
-20.35
-19.65
-19.15
-19.00
-19.32
-20.12
