1478934707.00
64.000000
-0.00
-0.00
-0.00
-0.00
-0.00
-0.00
-0.00
-0.00
-0.00
-0.00
0.00
0.01
0.01
-0.00
-0.03
-0.05
-0.05
0.00
0.13
0.36
0.66
1.01
1.37
1.72
2.06
2.40
2.79
3.24
3.80
4.42
5.06
5.66
6.20
6.68
7.15
7.68
8.31
9.14
10.09
11.04
11.88
12.56
13.14
13.76
14.65
15.96
17.91
20.32
22.90
25.38
27.58
29.57
31.68
34.32
37.81
42.54
48.15
54.10
59.83
64.97
69.58
74.14
79.34
85.71
93.76
103.00
112.62
121.73
129.77
136.75
143.30
150.75
157.77
166.64
177.95
191.79
206.97
220.57
228.25
225.36
208.53
176.87
132.76
80.05
23.07
-34.94
-92.44
-149.16
-205.23
-260.37
-313.74
-363.87
-409.83
-450.91
-486.50
-515.74
-537.23
-549.22
-549.96
-538.37
-514.21
-478.67
-433.88
-382.45
-327.02
-269.84
-212.63
-156.66
-102.95
-52.37
-5.90
35.58
71.43
101.35
125.50
144.38
158.69
169.15
176.37
180.75
182.57
182.07
179.51
175.23
169.65
163.18
156.15
148.81
141.30
133.69
126.02
118.33
110.69
103.16
95.80
88.68
81.83
75.25
68.95
62.95
57.25
51.86
46.78
42.03
37.59
33.45
29.61
26.07
22.81
19.83
17.11
14.67
12.48
10.54
8.83
7.35
6.07
4.97
4.05
3.27
2.62
2.09
1.65
1.30
1.01
0.79
0.61
0.48
0.37
0.29
0.24
0.20
0.18
0.17
0.18
0.19
0.21
0.23
0.26
0.31
0.37
0.44
0.49
0.51
0.49
0.43
0.35
0.28
0.25
0.28
0.34
0.44
0.51
0.54
0.53
0.51
0.50
0.56
0.71
0.92
1.14
1.32
1.41
1.41
1.37
1.40
1.59
1.98
2.51
3.06
3.45
3.57
3.42
3.13
2.96
3.13
3.74
4.68
5.66
6.29
6.34
5.79
4.95
4.31
4.30
5.13
6.59
8.13
9.08
8.90
7.50
5.17
2.51
0.02
-2.11
-4.12
-6.58
-10.09
-15.14
-21.97
-30.60
-40.72
-51.29
-60.34
-65.28
-63.70
-54.52
-38.84
-19.75
-1.31
13.09
21.83
25.43
25.65
24.43
23.00
21.63
20.22
18.76
17.61
17.28
17.95
19.24
20.27
20.16
18.29
14.79
10.34
5.92
2.41
0.16
-1.07
-2.03
-3.51
-5.97
-9.23
-12.43
-14.33
-13.79
-10.23
-3.88
4.17
12.36
19.15
23.47
24.97
23.99
21.29
17.74
14.08
10.74
7.89
5.45
3.26
1.13
-1.03
-3.20
-5.30
-7.22
-8.94
-10.48
-12.00
-13.52
-15.09
-16.79
-18.66
-20.64
-22.66
-24.63
-26.56
-28.65
-31.21
-34.70
-39.38
-45.08
-51.12
-56.31
-59.22
-58.61
-53.78
-44.78
-32.43
-18.02
-3.03
11.30
24.09
34.95
43.81
50.79
56.04
59.62
61.61
62.16
61.52
59.96
57.71
54.80
51.06
46.23
40.08
32.54
23.72
13.89
3.35
-7.59
-18.70
-29.78
-40.71
-51.44
-62.00
-72.50
-83.01
-93.44
-103.33
-111.78
-117.49
-118.99
-115.09
-105.28
-89.94
-70.36
-48.33
-25.70
-3.98
15.89
33.46
48.55
61.06
70.85
77.82
82.00
83.68
83.38
81.76
79.47
77.00
74.60
72.34
70.07
67.62
64.77
61.26
56.78
50.99
43.57
34.34
23.38
11.05
-2.16
-15.68
-29.05
-41.80
-53.40
-63.10
-69.90
-72.73
-70.78
-63.80
-52.34
-37.61
-21.17
-4.52
11.29
25.74
38.78
50.44
60.69
69.25
75.73
79.85
81.54
80.91
78.14
73.30
66.36
57.36
46.65
34.98
23.46
13.26
5.26
-0.28
-3.70
-5.91
-8.06
-11.24
-16.23
-23.33
-32.32
-42.39
-52.30
-60.60
-65.86
-67.00
-63.41
-55.14
-42.71
-27.01
-9.07
9.97
28.96
46.70
61.95
73.59
80.69
82.79
79.92
72.67
62.10
49.54
36.38
23.71
12.15
1.77
-7.71
-16.60
-24.92
-32.30
-38.16
-41.97
-43.63
-43.47
-42.24
-40.77
-39.79
-39.60
-39.93
-39.94
-38.42
-34.38
-27.56
-18.86
-10.22
-3.96
-1.78
-4.04
-9.61
-16.54
-23.14
-28.83
-34.39
-41.33
-50.83
-62.87
-75.88
-87.07
-93.16
-91.34
-79.99
-59.25
-31.27
0.18
30.45
55.34
72.17
80.52
81.98
79.15
74.49
69.50
64.67
60.00
55.65
52.14
50.01
49.28
49.19
48.46
45.95
41.34
35.34
29.42
25.17
23.63
24.90
28.15
32.07
35.30
36.87
36.35
33.91
30.07
25.47
20.65
15.86
11.17
6.47
1.65
-3.33
-8.38
-13.34
-18.05
-22.30
-25.84
-28.31
-29.38
-28.78
-26.53
-23.02
-18.98
-15.35
-12.98
-12.44
-13.83
-16.77
-20.48
-23.80
-25.40
-23.92
-18.36
-8.39
5.37
21.44
37.77
52.35
63.57
70.61
73.31
72.01
67.33
60.07
51.18
41.73
32.71
24.91
18.65
13.77
9.80
6.16
2.45
-1.48
-5.51
-9.43
-13.08
-16.45
-19.68
-23.02
-26.80
-31.27
-36.54
-42.42
-48.34
-53.35
-56.31
-56.21
-52.53
-45.45
-35.86
-25.10
-14.54
-5.27
2.13
7.48
10.89
12.57
12.76
11.75
9.88
7.50
4.94
2.44
0.06
-2.25
-4.63
-7.12
-9.69
-12.11
-14.09
-15.43
-16.10
-16.32
-16.57
-17.39
-19.30
-22.60
-27.21
-32.64
-37.97
-42.04
-43.71
-42.18
-37.22
-29.27
-19.30
-8.50
2.02
11.40
19.14
24.97
28.81
30.75
30.94
29.71
27.45
24.56
21.33
17.88
14.20
10.16
5.70
0.83
-4.33
-9.61
-14.83
-19.84
-24.51
-28.83
-32.94
-37.15
-41.94
-47.67
-54.34
-61.35
-67.50
-71.37
-71.78
-68.27
-61.24
-51.83
-41.48
-31.43
-22.47
-14.88
-8.61
-3.48
0.69
4.05
6.70
8.60
9.53
8.99
6.39
1.47
-5.40
-13.09
-19.98
-24.73
-27.08
-28.09
-29.77
-34.29
-43.20
-56.95
-74.58
-93.69
-110.52
-120.70
-120.66
-109.17
-88.34
-63.31
-40.36
-24.41
-16.99
-15.74
-15.44
-10.19
4.46
30.24
65.68
106.71
147.65
182.63
207.07
218.93
218.99
210.10
195.82
178.96
160.87
141.49
120.04
95.92
69.17
40.62
11.64
-16.21
-41.60
-63.69
-82.37
-98.11
-111.69
-123.78
-134.60
-143.85
-150.82
-154.69
-154.74
-150.57
-142.14
-129.84
-114.50
-97.35
-79.88
-63.71
-50.19
-40.14
-33.53
-29.41
-26.08
-21.50
-13.86
-2.05
14.01
33.37
54.31
74.70
92.41
105.79
113.87
116.40
113.79
106.82
96.55
84.05
70.36
56.32
42.45
28.92
15.71
2.84
-9.28
-19.66
-26.94
-29.78
-27.51
-20.46
-9.95
2.13
14.04
24.57
33.23
39.96
44.71
47.17
46.82
43.20
36.34
26.91
16.08
5.12
-5.09
-14.33
-22.96
-31.56
-40.41
-49.16
-56.80
-62.11
-64.18
-62.99
-59.45
-55.14
-51.53
-49.35
-48.21
-46.85
-43.77
-38.08
-29.97
-20.73
-12.26
-6.38
-4.16
-5.55
-9.40
-13.83
-16.61
-15.68
-9.55
2.42
19.81
41.09
63.80
84.95
101.65
111.67
113.95
108.81
97.67
82.59
65.72
48.81
33.00
18.91
6.79
-3.30
-11.40
-17.59
-21.84
-23.91
-23.36
-19.69
-12.69
-2.91
8.13
18.13
24.59
25.70
21.13
12.33
2.10
-6.41
-10.77
-10.07
-4.96
2.91
11.77
20.32
27.93
34.35
39.25
42.02
41.87
38.29
31.41
22.07
11.63
1.42
-7.60
-15.05
-21.08
-26.09
-30.51
-34.61
-38.48
-42.10
-45.44
-48.53
-51.53
-54.61
-58.03
-62.02
-66.67
-71.83
-76.91
-80.87
-82.48
-80.82
-75.78
-68.27
-60.10
-53.16
-48.68
-46.63
-45.74
-44.04
-39.83
-32.37
-22.19
-10.98
-0.88
6.30
9.71
9.81
8.16
6.84
7.59
11.21
17.31
24.66
31.77
37.61
41.80
44.67
46.96
49.80
54.98
64.98
82.54
109.30
144.19
182.60
217.24
240.57
247.89
239.25
219.17
194.22
169.91
148.74
130.17
112.37
94.20
76.12
59.64
45.88
34.33
22.97
9.44
-7.40
-26.53
-44.96
-59.12
-66.62
-67.43
-64.09
-60.63
-60.81
-66.55
-77.16
-89.80
-100.78
-107.12
-107.59
-102.82
-94.69
-85.39
-76.57
-69.12
-63.18
-58.57
-55.13
-52.78
-51.52
-51.24
-51.70
-52.47
-53.10
-53.14
-52.28
-50.39
-47.58
-44.35
-41.55
-40.22
-41.25
-45.03
-51.20
-58.74
-66.33
-72.90
-77.93
-81.50
-84.13
-86.34
-88.41
-90.22
-91.38
-91.42
-89.98
-86.96
-82.49
-76.85
-70.31
-63.12
-55.40
-47.17
-38.48
-29.44
-20.25
-11.21
-2.63
5.15
11.77
16.71
19.45
19.53
16.98
12.52
7.60
4.04
3.42
6.53
13.05
21.83
31.34
40.27
47.89
53.88
58.16
60.52
60.61
58.13
53.09
45.99
37.73
29.26
21.22
13.80
6.71
-0.47
-8.01
-15.78
-23.28
-29.97
-35.40
-39.51
-42.56
-44.99
-47.26
-49.79
-52.93
-56.95
-61.99
-67.82
-73.73
-78.42
-80.32
-77.91
-70.31
-57.46
-40.18
-19.93
1.65
23.00
42.82
60.08
73.95
83.88
89.67
91.51
90.00
85.94
80.14
73.22
65.59
57.50
49.06
40.39
31.54
22.63
13.83
5.36
-2.41
-9.17
-14.69
-18.92
-22.01
-24.23
-25.88
-27.14
-27.96
-28.05
-26.84
-23.67
-17.98
-9.60
1.11
13.27
25.72
37.34
47.38
55.62
62.25
67.70
72.34
76.35
79.81
82.79
85.45
88.06
90.87
93.98
97.18
99.98
101.78
101.98
100.24
96.50
91.03
84.27
76.74
68.93
61.20
53.76
46.71
40.03
33.58
27.23
20.92
14.84
9.48
5.62
4.22
6.02
11.33
19.74
30.16
41.08
50.95
58.58
63.33
65.09
64.13
60.82
55.45
48.27
39.57
29.71
19.20
8.54
-1.83
-11.64
-20.74
-29.03
-36.44
-42.93
-48.56
-53.52
-58.14
-62.68
-67.28
-71.88
-76.36
-80.67
-84.85
-89.01
-93.02
-96.39
-98.21
-97.43
-93.31
-85.69
-75.22
-63.06
-50.52
-38.62
-27.96
-18.77
-11.14
-5.17
-1.03
1.20
1.63
0.65
-1.23
-3.58
-6.14
-8.94
-12.13
-15.81
-19.89
-24.06
-27.84
-30.70
-32.18
-32.01
-30.11
-26.66
-22.03
-16.71
-11.18
-5.81
-0.81
3.75
7.82
11.31
14.05
15.85
16.49
15.91
14.22
11.89
9.76
8.95
10.54
15.32
23.51
34.64
47.68
61.32
74.22
85.22
93.45
98.36
99.79
97.98
93.71
87.93
81.59
75.25
69.12
63.14
57.15
51.12
45.20
39.87
35.61
32.58
30.52
28.80
26.65
23.46
18.95
13.29
7.36
2.07
-2.12
-5.52
-8.99
-13.58
-20.18
-29.12
-39.99
-50.59
-58.47
-61.95
-60.87
-56.28
-49.79
-42.91
-36.47
-30.38
-21.71
-7.59
13.07
38.78
66.60
93.39
116.18
131.96
138.01
136.00
129.04
120.65
113.68
110.41
112.40
119.53
129.37
138.58
149.15
164.32
186.50
215.37
248.66
283.56
317.38
347.25
346.38
298.91
208.04
96.80
-8.21
-91.52
-150.70
-191.15
-220.65
-248.13
-272.35
-288.04
-290.22
-277.62
-252.94
-221.71
-188.04
-158.68
-140.08
-132.60
-133.68
-139.83
-148.56
-158.17
-166.79
-172.01
-171.71
-164.11
-146.40
-118.35
-83.32
-47.42
-16.97
3.82
13.40
11.66
-0.51
-20.35
-44.43
-68.70
-88.98
-101.65
-104.77
-99.08
-88.18
-76.79
-68.32
-63.92
-62.54
-62.04
-60.60
-57.56
-53.36
-48.86
-44.34
-39.04
-31.94
-22.67
-12.16
-2.61
3.55
4.85
1.24
-6.20
-16.54
-29.76
-46.55
-67.02
-89.27
-108.95
-120.45
-119.08
-102.97
-73.76
-35.62
6.45
48.00
85.54
116.19
137.42
147.30
145.40
133.49
115.35
95.61
78.18
65.06
56.30
50.54
46.05
41.53
36.27
30.03
22.76
14.42
5.06
-5.06
-15.22
-24.30
-30.99
-34.19
-33.26
-28.18
-19.58
-8.49
3.92
16.49
28.20
38.26
46.11
51.44
54.22
54.64
53.11
50.15
46.33
42.18
38.11
34.34
30.89
27.61
24.34
20.98
17.64
14.58
12.08
10.29
9.11
8.15
6.92
5.00
2.21
-1.35
-5.28
-9.12
-12.51
-15.30
-17.71
-20.23
-23.45
-27.87
-33.56
-39.99
-46.02
-50.17
-51.03
-47.80
-40.58
-30.34
-18.61
-6.93
3.58
12.36
19.36
24.68
28.38
30.38
30.51
28.77
25.37
20.82
15.83
11.12
7.23
4.40
2.48
0.96
-0.82
-3.49
-7.39
-12.38
-17.84
-22.80
-26.18
-27.13
-25.16
-20.41
-13.53
-5.70
1.66
7.22
10.14
10.37
8.74
6.55
4.98
4.49
4.58
4.13
2.11
-1.71
-6.57
-11.09
-14.08
-15.23
-15.30
-15.60
-17.06
-19.44
-21.14
-19.85
-13.57
-1.68
14.57
32.48
48.78
60.79
67.28
68.48
65.64
60.24
53.38
45.60
37.11
28.23
19.53
11.78
5.60
1.14
-2.01
-4.60
-7.35
-10.62
-14.39
-18.35
-22.23
-25.98
-29.84
-34.12
-38.97
-44.09
-48.66
-51.51
-51.44
-47.69
-40.17
-29.56
-17.08
-4.15
8.00
18.55
27.16
33.77
38.48
41.35
42.36
41.51
38.95
35.08
30.51
25.93
21.94
18.84
16.58
14.84
13.20
11.29
8.95
6.21
3.17
-0.08
-3.49
-7.11
-10.98
-15.16
-19.75
-24.88
-30.62
-36.89
-43.28
-48.99
-52.92
-53.99
-51.44
-45.16
-35.74
-24.28
-12.12
-0.43
10.01
18.84
26.02
31.62
35.68
38.19
39.13
38.61
36.86
34.26
31.20
27.92
24.49
20.84
16.88
12.69
8.48
4.54
1.11
-1.74
-4.19
-6.53
-9.09
-12.18
-16.01
-20.75
-26.38
-32.65
-38.93
-44.19
-47.24
-46.99
-42.91
-35.13
-24.52
-12.36
-0.01
11.43
21.23
29.04
34.75
38.36
39.95
39.68
37.87
34.97
31.51
27.98
24.69
21.71
18.89
16.00
12.82
9.32
5.59
1.88
-1.59
-4.68
-7.42
-9.99
-12.73
-16.02
-20.20
-25.41
-31.44
-37.61
-42.86
-45.92
-45.76
-41.81
-34.27
-24.00
-12.27
-0.37
10.65
20.11
27.70
33.29
36.85
38.38
38.01
36.02
32.84
28.97
24.92
21.04
17.51
14.35
11.39
8.47
5.41
2.18
-1.13
-4.28
-7.04
-9.31
-11.21
-13.16
-15.75
-19.51
-24.71
-31.14
-38.08
-44.33
-48.49
-49.27
-45.93
-38.51
-27.92
-15.64
-3.30
7.82
17.08
24.39
30.05
34.31
37.26
38.74
38.59
36.81
33.71
29.84
25.85
22.18
19.00
16.21
13.52
10.66
7.56
4.31
1.13
-1.83
-4.52
-7.08
-9.79
-12.98
-16.93
-21.85
-27.75
-34.36
-41.06
-46.84
-50.47
-50.80
-47.12
-39.41
-28.42
-15.52
-2.28
9.88
19.98
27.63
32.90
36.12
37.70
37.94
36.98
34.91
31.89
28.18
24.20
20.36
16.94
13.98
11.28
8.54
5.56
2.34
-0.90
-3.90
-6.49
-8.73
-10.89
-13.37
-16.57
-20.82
-26.29
-32.88
-40.11
-46.99
-52.13
-54.05
-51.71
-44.92
-34.45
-21.80
-8.73
3.35
13.63
21.85
28.08
32.43
34.93
35.59
34.53
32.10
28.82
25.23
21.75
18.62
15.82
13.21
10.54
7.65
4.55
1.41
-1.48
-3.89
-5.75
-7.29
-8.99
-11.46
-15.18
-20.41
-26.94
-34.17
-41.08
-46.47
-49.13
-48.14
-43.13
-34.44
-23.06
-10.37
2.17
13.44
22.79
30.04
35.30
38.72
40.39
40.33
38.60
35.43
31.25
26.68
22.30
18.52
15.43
12.91
10.66
8.43
6.09
3.62
1.03
-1.68
-4.61
-7.89
-11.65
-16.01
-21.10
-26.97
-33.60
-40.69
-47.55
-53.13
-56.22
-55.74
-51.19
-42.80
-31.53
-18.79
-6.06
5.49
15.18
22.81
28.50
32.46
34.89
35.89
35.61
34.27
32.19
29.74
27.21
24.70
22.11
19.27
16.02
12.41
8.63
5.05
1.95
-0.50
-2.39
-4.03
-5.84
-8.32
-11.91
-16.91
-23.39
-31.08
-39.19
-46.47
-51.43
-52.66
-49.29
-41.36
-29.83
-16.32
-2.63
9.79
20.04
27.88
33.43
36.95
38.73
38.98
37.91
35.84
33.16
30.28
27.50
24.94
22.47
19.88
16.92
13.51
9.76
5.97
2.49
-0.47
-2.91
-5.06
-7.34
-10.17
-13.98
-19.02
-25.37
-32.77
-40.50
-47.35
-51.88
-52.74
-49.14
-41.19
-29.90
-16.85
-3.72
8.16
18.03
25.67
31.16
34.66
36.34
36.32
34.82
32.17
28.84
25.30
21.88
18.76
15.89
13.16
10.41
7.56
4.65
1.75
-1.02
-3.59
-5.98
-8.29
-10.73
-13.60
-17.25
-21.94
-27.71
-34.17
-40.55
-45.71
-48.43
-47.75
-43.24
-35.20
-24.52
-12.49
-0.36
10.85
20.55
28.47
34.57
38.85
41.30
41.94
40.84
38.19
34.31
29.62
24.62
19.83
15.69
12.39
9.96
8.13
6.60
5.10
3.49
1.72
-0.28
-2.66
-5.66
-9.55
-14.54
-20.65
-27.75
-35.39
-42.81
-48.95
-52.51
-52.34
-47.76
-38.94
-26.90
-13.29
0.17
12.07
21.64
28.70
33.48
36.30
37.47
37.20
35.70
33.26
30.31
27.26
24.43
21.94
19.60
17.09
14.10
10.56
6.66
2.81
-0.53
-3.14
-5.09
-6.77
-8.76
-11.60
-15.75
-21.40
-28.41
-36.25
-43.91
-50.04
-53.18
-52.19
-46.64
-37.05
-24.69
-11.23
1.81
13.35
22.87
30.19
35.32
38.27
39.06
37.89
35.16
31.50
27.54
23.84
20.65
18.00
15.68
13.49
11.24
8.87
6.38
3.78
1.10
-1.64
-4.42
-7.24
-10.13
-13.29
-17.03
-21.68
-27.42
-33.97
-40.58
-46.00
-48.87
-48.07
-43.14
-34.40
-22.94
-10.21
2.34
13.62
23.01
30.31
35.62
39.06
40.75
40.85
39.54
37.13
33.96
30.45
26.95
23.73
20.85
18.29
15.83
13.24
10.36
7.21
3.97
0.88
-1.90
-4.46
-7.09
-10.14
-13.95
-18.69
-24.41
-31.02
-38.18
-45.22
-51.09
-54.46
-54.10
-49.32
-40.25
-27.94
-14.00
-0.14
12.26
22.40
30.02
35.29
38.56
40.25
40.76
40.48
39.70
38.64
37.41
35.98
34.17
31.77
28.65
24.84
20.73
16.87
13.83
11.97
11.25
11.20
11.13
10.31
8.16
4.38
-1.13
-8.26
-16.70
-25.91
-34.94
-42.52
-47.24
-47.94
-44.09
-36.02
-24.87
-12.29
0.03
10.74
19.07
24.81
28.14
29.40
28.94
27.08
24.14
20.49
16.61
12.98
10.01
7.87
6.41
5.21
3.74
1.63
-1.21
-4.59
-8.11
-11.42
-14.36
-17.02
-19.68
-22.75
-26.59
-31.42
-37.11
-43.13
-48.61
-52.44
-53.62
-51.43
-45.76
-37.07
-26.29
-14.64
-3.33
6.60
14.46
19.90
22.96
23.92
23.28
21.57
19.32
16.91
14.65
12.65
10.92
9.32
7.64
5.69
3.35
0.72
-1.96
-4.36
-6.29
-7.78
-9.24
-11.24
-14.40
-19.09
-25.23
-32.20
-38.90
-43.99
-46.21
-44.67
-39.13
-30.10
-18.70
-6.36
5.50
15.79
23.89
29.65
33.26
35.04
35.35
34.45
32.59
29.97
26.87
23.57
20.33
17.31
14.50
11.74
8.87
5.80
2.61
-0.47
-3.13
-5.23
-6.90
-8.57
-10.89
-14.53
-19.83
-26.60
-34.04
-40.80
-45.42
-46.69
-44.02
-37.64
-28.42
-17.59
-6.39
4.17
13.42
20.97
26.64
30.34
32.18
32.35
31.21
29.19
26.75
24.27
22.01
20.03
18.19
16.25
13.95
11.16
7.98
4.64
1.46
-1.36
-3.81
-6.13
-8.68
-11.86
-15.98
-21.13
-27.12
-33.42
-39.09
-42.92
-43.71
-40.68
-33.71
-23.49
-11.32
1.29
13.05
23.04
30.89
36.49
39.88
41.18
40.52
38.26
34.87
30.98
27.21
23.99
21.52
19.70
18.23
16.71
14.79
12.28
9.30
6.19
3.38
1.20
-0.36
-1.69
-3.47
-6.45
-11.14
-17.56
-25.09
-32.55
-38.40
-41.20
-39.95
-34.42
-25.22
-13.62
-1.21
10.59
20.66
28.42
33.68
36.52
37.14
35.85
33.03
29.17
24.83
20.54
16.75
13.63
11.16
9.11
7.15
5.06
2.78
0.42
-1.80
-3.68
-5.20
-6.55
-8.07
-10.20
-13.36
-17.75
-23.33
-29.67
-35.97
-41.17
-44.09
-43.74
-39.61
-31.85
-21.29
-9.26
2.79
13.60
22.34
28.71
32.76
34.69
34.78
33.24
30.36
26.54
22.32
18.28
14.85
12.18
10.03
8.00
5.66
2.80
-0.45
-3.76
-6.74
-9.23
-11.31
-13.40
-16.00
-19.57
-24.30
-30.05
-36.32
-42.20
-46.61
-48.45
-46.88
-41.63
-33.06
-22.15
-10.19
1.51
11.91
20.36
26.60
30.61
32.50
32.47
30.84
28.06
24.69
21.27
18.24
15.82
13.96
12.44
10.98
9.39
7.61
5.77
4.03
2.48
1.00
-0.75
-3.27
-7.06
-12.39
-19.12
-26.58
-33.63
-38.92
-41.18
-39.69
-34.40
-26.00
-15.70
-4.81
5.58
14.77
22.43
28.41
32.61
34.91
35.21
33.59
30.39
26.16
21.54
17.09
13.10
9.59
6.38
3.24
0.03
-3.20
-6.25
-8.83
-10.82
-12.26
-13.52
-15.16
-17.84
-22.00
-27.72
-34.60
-41.70
-47.72
-51.34
-51.53
-47.82
-40.41
-30.05
-17.89
-5.15
7.09
17.98
26.95
33.71
38.17
40.42
40.72
39.38
36.84
33.56
30.01
26.54
23.39
20.53
17.74
14.71
11.26
7.41
3.46
-0.26
-3.50
-6.29
-8.95
-11.93
-15.68
-20.49
-26.42
-33.16
-40.07
-46.12
-50.08
-50.83
-47.72
-40.81
-30.94
-19.41
-7.63
3.32
12.78
20.53
26.51
30.74
33.19
33.93
33.16
31.25
28.65
25.79
22.98
20.35
17.92
15.62
13.34
10.95
8.39
5.71
3.08
0.67
-1.44
-3.43
-5.75
-9.05
-13.88
-20.37
-28.04
-35.78
-42.11
-45.60
-45.26
-40.85
-32.85
-22.30
-10.44
1.51
12.63
22.28
30.11
35.93
39.68
41.42
41.37
39.87
37.33
34.17
30.76
27.33
23.99
20.68
17.31
13.74
9.88
5.80
1.71
-2.07
-5.33
-8.00
-10.35
-12.88
-16.20
-20.81
-26.81
-33.80
-40.88
-46.81
-50.30
-50.39
-46.62
-39.23
-29.01
-17.14
-4.82
6.92
17.36
26.07
32.83
37.56
40.25
41.03
40.18
38.13
35.36
32.33
29.32
26.41
23.56
20.57
17.33
13.75
9.91
5.98
2.19
-1.36
-4.74
-8.22
-12.26
-17.29
-23.64
-31.27
-39.69
-48.00
-54.97
-59.43
-60.44
-57.68
-51.45
-42.62
-32.33
-21.75
-11.80
-3.05
4.15
9.67
13.40
15.30
15.37
13.79
10.89
7.15
3.13
-0.69
-3.98
-6.60
-8.51
-9.65
-9.88
-8.98
-6.76
-3.20
1.46
6.74
11.89
16.21
19.03
19.89
18.62
15.46
11.08
6.56
3.17
2.08
4.00
9.00
16.46
25.34
34.44
42.77
49.65
54.81
58.23
60.03
60.38
59.44
57.39
54.43
50.82
46.79
42.54
38.19
33.74
29.15
24.43
19.69
15.16
11.10
7.70
4.94
2.49
-0.14
-3.56
-8.20
-14.25
-21.46
-29.13
-36.19
-41.45
-43.85
-42.75
-38.14
-30.62
-21.19
-10.89
-0.59
9.15
17.98
25.59
31.60
35.58
37.25
36.61
34.08
30.32
26.04
21.69
17.43
13.16
8.69
3.92
-1.05
-6.04
-10.78
-15.09
-18.94
-22.45
-25.92
-29.80
-34.53
-40.51
-47.84
-56.21
-64.84
-72.55
-78.00
-80.07
-78.24
-72.74
-64.56
-55.05
-45.51
-36.81
-29.29
-22.88
-17.38
-12.81
-9.42
-7.62
-7.73
-9.70
-13.17
-17.55
-22.29
-27.07
-31.88
-36.90
-42.25
-47.80
-53.06
-57.30
-59.82
-60.13
-58.15
-54.20
-48.87
-42.93
-37.20
-32.35
-28.80
-26.43
-24.56
-22.02
-17.56
-10.27
0.07
12.87
27.05
41.32
54.64
66.34
76.09
83.80
89.46
93.16
95.04
95.37
94.48
92.72
90.41
87.80
85.06
82.25
79.34
76.23
72.76
68.86
64.47
59.66
54.52
49.15
43.61
37.94
32.13
26.13
19.84
13.11
5.78
-2.29
-11.01
-20.00
-28.54
-35.64
-40.31
-41.85
-40.04
-35.23
-28.27
-20.19
-12.04
-4.61
1.57
6.34
9.75
12.07
13.60
14.60
15.19
15.32
14.79
13.44
11.23
8.31
5.07
1.95
-0.69
-2.63
-3.93
-4.78
-5.51
-6.40
-7.69
-9.43
-11.52
-13.75
-15.87
-17.75
-19.43
-21.16
-23.35
-26.34
-30.22
-34.58
-38.58
-41.09
-40.98
-37.58
-30.79
-21.15
-9.66
2.47
14.11
24.34
32.59
38.61
42.43
44.33
44.65
43.76
41.96
39.49
36.56
33.35
30.05
26.84
23.77
20.85
18.04
15.28
12.54
9.81
7.07
4.27
1.35
-1.74
-4.98
-8.38
-11.90
-15.54
-19.33
-23.36
-27.74
-32.60
-38.03
-43.92
-49.84
-54.99
-58.30
-58.76
-55.76
-49.33
-40.21
-29.58
-18.77
-8.87
-0.48
6.22
11.38
15.21
17.90
19.46
19.87
19.12
17.34
14.84
11.99
9.21
6.78
4.77
3.10
1.58
0.12
-1.34
-2.72
-3.95
-5.07
-6.25
-7.71
-9.62
-12.03
-14.85
-17.92
-21.25
-24.92
-29.14
-33.93
-38.92
-43.30
-45.90
-45.60
-41.72
-34.28
-24.10
-12.49
-0.93
9.36
17.65
23.72
27.68
29.81
30.39
29.64
27.73
24.83
21.15
17.00
12.71
8.69
5.26
2.68
1.01
0.10
-0.34
-0.67
-1.23
-2.28
-3.96
-6.22
-8.89
-11.71
-14.45
-17.06
-19.75
-22.89
-26.80
-31.42
-36.11
-39.78
-41.21
-39.47
-34.32
-26.23
-16.18
-5.29
5.49
15.43
24.02
30.86
35.64
38.18
38.55
37.10
34.37
30.96
27.36
23.87
20.63
17.64
14.86
12.20
9.50
6.57
3.26
-0.43
-4.37
-8.28
-11.94
-15.21
-18.19
-21.16
-24.54
-28.65
-33.69
-39.48
-45.50
-50.87
-54.50
-55.37
-52.82
-46.74
-37.55
-26.09
-13.38
-0.44
11.80
22.54
31.19
37.43
41.36
43.45
44.33
44.62
44.67
44.59
44.30
43.71
42.79
41.54
39.91
37.79
35.08
31.79
28.07
24.16
20.24
16.35
12.32
7.83
2.57
-3.69
-10.90
-18.76
-26.61
-33.50
-38.40
-40.41
-39.00
-34.23
-26.69
-17.36
-7.40
2.17
10.57
17.32
22.24
25.28
26.57
26.28
24.71
22.22
19.24
16.16
13.24
10.52
7.85
4.97
1.71
-1.92
-5.65
-9.17
-12.21
-14.72
-16.90
-19.10
-21.65
-24.81
-28.69
-33.34
-38.67
-44.40
-49.98
-54.49
-56.82
-55.98
-51.45
-43.37
-32.55
-20.21
-7.63
4.16
14.45
22.84
29.12
33.21
35.13
35.07
33.40
30.64
27.34
23.98
20.87
18.10
15.58
13.10
10.48
7.67
4.76
1.90
-0.75
-3.14
-5.34
-7.61
-10.27
-13.67
-18.09
-23.61
-30.02
-36.67
-42.49
-46.24
-46.76
-43.40
-36.23
-26.02
-14.01
-1.53
10.34
20.86
29.59
36.27
40.75
42.99
43.08
41.34
38.32
34.63
30.87
27.41
24.36
21.60
18.83
15.81
12.42
8.79
5.22
2.00
-0.74
-3.11
-5.45
-8.19
-11.70
-16.23
-21.83
-28.32
-35.25
-41.79
-46.84
-49.17
-47.87
-42.62
-33.88
-22.75
-10.56
1.53
12.74
22.65
31.08
37.78
42.50
45.02
45.35
43.80
40.96
37.54
34.17
31.17
28.55
26.05
23.30
20.03
16.22
12.09
8.01
4.29
1.03
-1.93
-4.95
-8.42
-12.64
-17.73
-23.67
-30.26
-37.12
-43.61
-48.81
-51.64
-51.15
-46.80
-38.73
-27.83
-15.46
-3.13
7.98
17.19
24.40
29.86
33.84
36.44
37.59
37.18
35.27
32.22
28.61
25.06
21.92
19.21
16.68
13.98
10.93
7.56
4.13
0.89
-2.02
-4.65
-7.16
-9.78
-12.70
-16.14
-20.29
-25.35
-31.31
-37.79
-43.90
-48.31
-49.64
-46.84
-39.66
-28.73
-15.41
-1.38
11.77
22.92
31.49
37.37
40.77
42.04
41.61
39.87
37.24
34.15
31.00
28.10
25.61
23.48
21.50
19.42
17.02
14.33
11.51
8.81
6.40
4.30
2.32
0.18
-2.39
-5.64
-9.76
-14.88
-20.99
-27.77
-34.46
-39.96
-43.02
-42.60
-38.28
-30.40
-19.94
-8.29
3.18
13.41
21.79
28.16
32.68
35.63
37.23
37.62
36.88
35.10
32.47
29.31
25.97
22.72
19.66
16.74
13.88
11.04
8.32
5.86
3.75
1.91
0.06
-2.13
-4.99
-8.74
-13.49
-19.22
-25.71
-32.52
-38.85
-43.67
-45.94
-44.86
-40.24
-32.57
-22.82
-12.16
-1.67
7.90
16.07
22.58
27.30
30.20
31.35
31.01
29.53
27.32
24.75
22.10
19.44
16.66
13.56
9.97
5.90
1.59
-2.51
-5.93
-8.42
-10.09
-11.37
-12.89
-15.21
-18.69
-23.40
-29.09
-35.25
-41.07
-45.62
-47.85
-46.98
-42.67
-35.21
-25.47
-14.63
-3.90
5.76
13.75
19.80
23.83
25.91
26.14
24.73
22.02
18.43
14.48
10.61
7.15
4.19
1.66
-0.64
-2.91
-5.19
-7.43
-9.44
-11.07
-12.34
-13.46
-14.83
-16.96
-20.28
-24.99
-30.83
-37.05
-42.45
-45.71
-45.69
-41.81
-34.25
-23.93
-12.17
-0.35
10.47
19.68
27.11
32.75
36.66
38.81
39.19
37.98
35.54
32.44
29.20
26.13
23.21
20.16
16.70
12.71
8.39
4.13
0.36
-2.69
-5.08
-7.19
-9.53
-12.71
-17.18
-23.20
-30.57
-38.59
-46.12
-51.77
-54.30
-52.95
-47.75
-39.38
-28.97
-17.77
-6.80
3.19
11.75
18.64
23.79
27.20
29.01
29.47
28.93
27.76
26.26
24.63
22.88
20.89
18.52
15.68
12.52
9.34
6.54
4.40
2.91
1.74
0.29
-2.12
-6.04
-11.72
-18.93
-26.89
-34.34
-39.81
-41.97
-40.04
-34.03
-24.73
-13.44
-1.56
9.78
19.85
28.26
34.79
39.24
41.44
41.40
39.38
35.97
31.92
27.94
24.45
21.44
18.58
15.44
11.77
7.65
3.48
-0.23
-3.10
-5.10
-6.57
-8.17
-10.60
-14.40
-19.76
-26.36
-33.39
-39.60
-43.64
-44.38
-41.22
-34.33
-24.55
-13.15
-1.45
9.46
18.85
26.33
31.69
34.93
36.13
35.57
33.71
31.07
28.15
25.27
22.49
19.69
16.69
13.38
9.81
6.21
2.91
0.14
-2.03
-3.81
-5.64
-8.10
-11.73
-16.90
-23.64
-31.45
-39.32
-45.82
-49.46
-49.13
-44.48
-36.03
-25.02
-13.00
-1.39
8.84
17.27
23.81
28.52
31.41
32.48
31.76
29.56
26.45
23.13
20.23
18.04
16.43
14.96
13.12
10.66
7.68
4.60
1.85
-0.33
-2.04
-3.71
-5.93
-9.22
-13.91
-19.89
-26.67
-33.26
-38.36
-40.64
-39.07
-33.36
-23.99
-12.23
0.35
12.26
22.47
30.57
36.54
40.57
42.77
43.19
41.91
39.19
35.57
31.68
28.08
24.98
22.30
19.69
16.83
13.57
9.94
6.17
2.51
-0.84
-3.83
-6.61
-9.47
-12.85
-17.21
-22.84
-29.65
-37.10
-44.11
-49.41
-51.77
-50.35
-44.96
-36.07
-24.71
-12.22
0.07
11.09
20.15
26.95
31.49
33.90
34.39
33.21
30.68
27.30
23.60
20.12
17.12
14.58
12.17
9.49
6.31
2.71
-0.95
-4.18
-6.72
-8.55
-10.00
-11.57
-13.77
-16.98
-21.42
-27.05
-33.51
-40.00
-45.31
-48.03
-46.94
-41.49
-32.07
-19.90
-6.68
5.98
16.92
25.62
32.01
36.26
38.53
38.94
37.63
34.93
31.39
27.61
24.11
21.15
18.58
16.07
13.20
9.74
5.78
1.71
-2.00
-4.98
-7.18
-8.92
-10.79
-13.46
-17.48
-23.06
-29.93
-37.36
-44.15
-48.94
-50.48
-48.00
-41.45
-31.55
-19.58
-6.98
4.94
15.32
23.73
30.09
34.50
37.15
38.19
37.83
36.31
33.94
31.08
28.04
25.03
22.08
19.07
15.85
12.32
8.54
4.72
1.09
-2.20
-5.17
-8.02
-11.07
-14.66
-19.12
-24.66
-31.30
-38.65
-45.86
-51.65
-54.62
-53.70
-48.47
-39.39
-27.61
-14.64
-1.91
9.57
19.20
26.79
32.34
36.00
37.93
38.34
37.52
35.79
33.47
30.83
28.05
25.20
22.25
19.15
15.87
12.46
9.02
5.71
2.63
-0.20
-2.90
-5.64
-8.64
-12.10
-16.25
-21.29
-27.32
-34.26
-41.65
-48.53
-53.61
-55.53
-53.29
-46.59
-36.08
-23.12
-9.42
3.45
14.42
23.09
29.54
34.12
37.14
38.80
39.18
38.37
36.56
34.02
31.08
28.02
25.01
22.09
19.24
16.39
13.43
10.31
6.98
3.44
-0.29
-4.10
-7.90
-11.61
-15.21
-18.83
-22.72
-27.19
-32.50
-38.68
-45.32
-51.49
-55.89
-57.15
-54.30
-47.13
-36.33
-23.32
-9.84
2.61
13.08
21.30
27.51
32.10
35.38
37.43
38.13
37.43
35.40
32.43
29.02
25.68
22.70
20.10
17.65
15.07
12.14
8.92
5.58
2.37
-0.61
-3.43
-6.32
-9.56
-13.37
-17.86
-23.05
-28.92
-35.28
-41.70
-47.38
-51.22
-52.05
-49.01
-41.89
-31.28
-18.44
-4.99
7.56
18.14
26.26
31.96
35.63
37.71
38.58
38.38
37.17
35.00
32.02
28.54
24.96
21.60
18.65
16.07
13.63
11.05
8.06
4.61
0.77
-3.23
-7.14
-10.84
-14.35
-17.88
-21.75
-26.32
-31.83
-38.35
-45.59
-52.85
-59.00
-62.67
-62.60
-58.06
-49.18
-37.05
-23.39
-10.08
1.37
10.21
16.41
20.44
22.89
24.09
24.07
22.64
19.65
15.18
9.66
3.75
-1.94
-6.99
-11.34
-15.22
-18.91
-22.64
-26.42
-30.07
-33.28
-35.66
-36.82
-36.38
-34.12
-30.18
-25.19
-20.25
-16.72
-15.77
-17.85
-22.33
-27.49
-30.91
-30.18
-23.69
-11.17
6.24
26.28
46.23
63.59
76.59
84.45
87.29
85.96
81.71
75.89
69.64
63.73
58.46
53.73
49.24
44.66
39.89
35.00
30.25
25.93
22.24
19.21
16.68
14.28
11.54
8.02
3.42
-2.27
-8.91
-16.27
-24.14
-32.45
-41.05
-49.61
-57.42
-63.42
-66.34
-65.04
-58.82
-47.69
-32.50
-14.81
3.42
20.19
33.96
43.93
50.07
52.94
53.33
51.95
49.28
45.63
41.30
36.72
32.44
28.96
26.60
25.32
24.65
23.97
22.64
20.31
16.99
13.06
9.03
5.26
1.86
-1.40
-4.86
-8.88
-13.63
-19.11
-25.17
-31.51
-37.61
-42.72
-45.87
-46.04
-42.38
-34.59
-22.99
-8.62
7.09
22.59
36.60
48.37
57.71
64.88
70.31
74.39
77.27
78.83
78.77
76.78
72.76
66.88
59.65
51.75
43.84
36.36
29.36
22.59
15.63
8.21
0.32
-7.72
-15.56
-23.08
-30.47
-38.17
-46.57
-55.79
-65.57
-75.43
-84.87
-93.40
-100.44
-105.18
-106.45
-102.99
-94.05
-79.83
-61.78
-42.27
-23.89
-8.61
2.72
10.47
15.71
19.64
23.01
26.03
28.50
30.27
31.43
32.28
33.07
33.51
32.69
29.36
22.61
12.54
0.54
-11.16
-20.42
-26.19
-28.94
-30.35
-32.28
-35.84
-40.99
-46.79
-52.38
-57.60
-63.19
-70.20
-79.04
-88.78
-97.15
-101.29
-98.79
-88.63
-71.39
-48.88
-23.48
2.38
26.55
47.17
62.89
73.01
77.81
78.51
76.84
74.42
72.19
70.29
68.31
65.85
62.86
59.63
56.51
53.52
50.27
46.19
40.88
34.37
27.12
19.82
13.07
7.15
1.92
-3.03
-8.32
-14.43
-21.70
-30.06
-39.06
-47.77
-54.89
-58.97
-58.77
-53.71
-44.04
-30.93
-16.09
-1.34
11.91
22.78
30.97
36.52
39.65
40.64
39.75
37.31
33.70
29.34
24.58
19.69
14.82
10.01
5.30
0.78
-3.36
-6.85
-9.40
-10.84
-11.26
-10.91
-10.23
-9.71
-9.80
-10.85
-13.11
-16.68
-21.47
-27.06
-32.73
-37.44
-40.06
-39.58
-35.42
-27.63
-16.93
-4.60
7.81
18.86
27.53
33.33
36.30
36.79
35.24
32.11
27.80
22.73
17.37
12.23
7.71
3.95
0.82
-2.08
-5.22
-8.95
-13.30
-17.88
-21.99
-24.94
-26.33
-26.35
-25.75
-25.62
-27.05
-30.72
-36.65
-44.07
-51.61
-57.46
-59.85
-57.50
-49.94
-37.76
-22.37
-5.68
10.49
24.78
36.51
45.50
51.89
55.91
57.75
57.59
55.65
52.27
47.90
43.09
38.38
34.20
30.81
28.19
26.03
23.87
21.23
17.85
13.75
9.22
4.63
0.12
-4.50
-9.72
-16.12
-23.94
-32.85
-41.86
-49.54
-54.41
-55.27
-51.54
-43.30
-31.23
-16.53
-0.72
14.52
27.68
37.63
43.88
46.58
46.37
44.14
40.70
36.64
32.34
28.01
23.83
19.94
16.39
13.03
9.53
5.57
0.96
-4.15
-9.25
-13.70
-17.02
-19.18
-20.67
-22.31
-25.04
-29.54
-35.95
-43.78
-51.91
-58.78
-62.70
-62.30
-56.81
-46.40
-32.16
-15.80
0.79
16.03
28.91
39.05
46.50
51.47
54.13
54.60
53.05
49.80
45.42
40.63
36.06
32.06
28.60
25.38
21.97
18.09
13.65
8.84
3.95
-0.72
-4.97
-8.79
-12.31
-15.81
-19.64
-24.23
-29.93
-36.84
-44.65
-52.51
-59.05
-62.64
-61.81
-55.71
-44.45
-29.15
-11.66
5.98
21.97
35.08
44.73
50.73
53.15
52.17
48.16
41.77
33.91
25.67
18.04
11.63
6.61
2.74
-0.42
-3.26
-5.97
-8.57
-11.01
-13.26
-15.43
-17.72
-20.30
-23.30
-26.83
-31.05
-36.13
-42.22
-49.15
-56.28
-62.36
-65.84
-65.32
-60.00
-50.02
-36.37
-20.66
-4.59
10.38
23.20
33.31
40.50
44.82
46.50
45.91
43.45
39.62
34.94
29.97
25.22
21.00
17.37
14.10
10.82
7.25
3.37
-0.54
-4.07
-6.97
-9.30
-11.49
-14.19
-18.10
-23.69
-31.09
-39.99
-49.63
-58.80
-66.00
-69.75
-68.88
-62.96
-52.42
-38.43
-22.67
-6.81
7.80
20.35
30.47
38.13
43.42
46.49
47.51
46.76
44.63
41.55
37.95
34.12
30.13
25.96
21.51
16.73
11.71
6.68
1.92
-2.26
-5.73
-8.55
-10.97
-13.39
-16.30
-20.22
-25.55
-32.51
-40.88
-49.89
-58.19
-64.08
-65.94
-62.71
-54.30
-41.55
-26.01
-9.45
6.51
20.72
32.50
41.60
48.06
52.08
53.94
53.97
52.50
49.88
46.45
42.53
38.35
34.02
29.58
25.01
20.34
15.62
10.95
6.38
1.91
-2.52
-6.93
-11.37
-15.81
-20.31
-25.05
-30.37
-36.66
-44.14
-52.53
-60.90
-67.71
-71.19
-69.81
-62.90
-50.81
-34.88
-17.05
0.72
16.88
30.46
41.12
48.93
54.19
57.30
58.65
58.54
57.17
54.65
51.09
46.67
41.66
36.37
31.08
25.97
21.14
16.56
12.22
8.09
4.16
0.36
-3.39
-7.15
-10.98
-14.88
-19.00
-23.67
-29.39
-36.57
-45.21
-54.57
-63.12
-68.95
-70.29
-66.16
-56.66
-42.96
-26.83
-10.12
5.65
19.49
30.91
39.79
46.22
50.43
52.72
53.38
52.65
50.72
47.71
43.78
39.15
34.18
29.29
24.83
21.00
17.74
14.77
11.69
8.17
4.06
-0.60
-5.55
-10.55
-15.43
-20.27
-25.35
-31.08
-37.78
-45.42
-53.42
-60.71
-65.87
-67.47
-64.49
-56.59
-44.33
-28.99
-12.31
3.94
18.33
30.06
38.89
45.06
49.00
51.13
51.75
51.08
49.22
46.30
42.43
37.82
32.71
27.47
22.47
18.05
14.33
11.20
8.30
5.19
1.58
-2.62
-7.30
-12.24
-17.24
-22.23
-27.33
-32.90
-39.38
-47.18
-56.33
-66.19
-75.46
-82.32
-85.00
-82.38
-74.42
-62.15
-47.44
-32.43
-18.96
-8.15
-0.26
5.22
9.13
12.11
14.25
14.98
13.22
7.93
-1.35
-13.92
-27.89
-40.64
-49.77
-54.06
-53.85
-50.58
-45.90
-40.59
-34.34
-26.16
-15.44
-2.64
10.66
22.54
31.71
37.88
41.41
42.58
41.16
36.71
29.42
20.80
13.43
10.01
12.14
19.50
30.00
40.68
48.89
53.11
53.04
49.25
42.68
34.30
25.02
15.71
7.18
0.02
-5.56
-9.86
-13.51
-17.24
-21.51
-26.35
-31.33
-35.82
-39.21
-41.25
-42.08
-42.18
-42.15
-42.52
-43.68
-45.81
-48.95
-53.01
-57.79
-63.05
-68.54
-74.17
-80.02
-86.20
-92.68
-98.97
-104.04
-106.56
-105.34
-99.75
-90.04
-77.22
-62.75
-48.12
-34.41
-22.15
-11.21
-1.07
8.97
19.40
30.39
41.68
52.81
63.31
72.87
81.43
89.09
96.10
102.75
109.39
116.38
123.99
132.11
140.23
147.37
152.35
154.24
152.51
147.33
139.35
129.55
118.83
107.89
97.11
86.46
75.76
64.80
53.54
42.24
31.49
22.05
14.78
10.30
8.85
10.16
13.48
17.65
21.48
24.00
24.71
23.69
21.40
18.56
15.80
13.62
12.24
11.65
11.49
11.01
9.15
4.87
-2.26
-11.60
-21.47
-29.66
-34.42
-35.19
-32.85
-29.17
-25.95
-24.14
-23.73
-24.16
-25.00
-26.45
-29.18
-33.74
-39.89
-46.29
-50.97
-52.06
-48.57
-40.75
-29.90
-17.70
-5.59
5.64
15.83
25.12
33.54
40.81
46.41
49.77
50.60
49.01
45.55
41.04
36.29
31.90
28.10
24.79
21.66
18.33
14.55
10.24
5.46
0.39
-4.83
-10.08
-15.35
-20.76
-26.54
-32.99
-40.34
-48.59
-57.31
-65.61
-72.22
-75.83
-75.49
-70.88
-62.45
-51.22
-38.47
-25.42
-12.95
-1.62
8.30
16.70
23.52
28.76
32.38
34.41
34.83
33.75
31.32
27.77
23.33
18.24
12.60
6.45
-0.16
-7.12
-14.19
-21.03
-27.32
-32.82
-37.48
-41.47
-45.06
-48.56
-52.21
-56.03
-59.71
-62.61
-63.82
-62.41
-57.68
-49.46
-38.12
-24.57
-9.94
4.61
18.18
30.13
40.12
48.01
53.88
57.87
60.24
61.28
61.26
60.37
58.76
56.47
53.54
50.00
45.85
41.12
35.92
30.42
24.85
19.53
14.68
10.40
6.60
2.96
-0.88
-5.30
-10.54
-16.54
-22.84
-28.64
-32.89
-34.55
-32.94
-27.95
-20.16
-10.62
-0.55
9.01
17.39
24.27
29.57
33.23
35.20
35.46
34.16
31.65
28.43
25.04
21.89
19.11
16.54
13.82
10.58
6.58
1.84
-3.34
-8.52
-13.22
-17.18
-20.38
-23.02
-25.45
-28.08
-31.28
-35.33
-40.39
-46.32
-52.63
-58.39
-62.35
-63.29
-60.40
-53.55
-43.43
-31.25
-18.46
-6.32
4.30
13.02
19.74
24.48
27.28
28.16
27.19
24.60
20.81
16.42
12.04
8.11
4.80
1.99
-0.60
-3.15
-5.58
-7.55
-8.62
-8.50
-7.28
-5.42
-3.62
-2.60
-2.93
-4.91
-8.56
-13.64
-19.52
-25.23
-29.49
-31.01
-28.92
-23.03
-13.99
-3.03
8.45
19.33
28.96
37.16
43.97
49.39
53.27
55.33
55.42
53.65
50.48
46.55
42.49
38.67
35.13
31.69
28.10
24.21
20.09
15.90
11.82
7.88
3.94
-0.28
-5.06
-10.61
-17.05
-24.39
-32.54
-41.17
-49.64
-56.95
-61.89
-63.42
-60.90
-54.45
-44.83
-33.29
-21.11
-9.35
1.27
10.36
17.69
23.16
26.67
28.24
28.00
26.21
23.24
19.53
15.53
11.58
7.86
4.33
0.83
-2.81
-6.66
-10.58
-14.34
-17.68
-20.51
-22.98
-25.42
-28.31
-32.10
-37.05
-43.05
-49.55
-55.54
-59.74
-60.90
-58.17
-51.36
-41.02
-28.31
-14.65
-1.35
10.58
20.56
28.35
33.91
37.31
38.73
38.47
37.00
34.90
32.72
30.89
29.53
28.49
27.44
25.97
23.82
20.96
17.54
13.85
10.19
6.73
3.52
0.42
-2.83
-6.60
-11.23
-16.89
-23.47
-30.38
-36.58
-40.81
-41.84
-38.95
-32.15
-22.18
-10.28
2.16
14.03
24.56
33.36
40.26
45.15
47.97
48.72
47.55
44.82
41.03
36.74
32.40
28.25
24.27
20.30
16.13
11.64
6.89
2.04
-2.71
-7.19
-11.36
-15.32
-19.28
-23.47
-28.18
-33.68
-40.13
-47.43
-55.07
-62.10
-67.27
-69.37
-67.63
-61.95
-52.99
-41.90
-30.00
-18.42
-7.91
1.17
8.69
14.59
18.77
21.13
21.70
20.70
18.58
15.92
13.20
10.73
8.55
6.49
4.36
2.05
-0.36
-2.71
-4.83
-6.61
-8.10
-9.49
-11.09
-13.30
-16.52
-20.99
-26.61
-32.79
-38.49
-42.33
-43.07
-39.90
-32.73
-22.21
-9.55
3.86
16.71
28.02
37.20
44.02
48.46
50.66
50.87
49.42
46.75
43.34
39.67
36.06
32.58
29.14
25.55
21.74
17.87
14.22
11.14
8.75
6.91
5.20
3.08
0.02
-4.36
-10.33
-17.93
-26.96
-36.78
-46.23
-53.78
-57.78
-56.99
-51.04
-40.64
-27.41
-13.38
-0.46
10.14
18.01
23.46
27.06
29.35
30.63
31.10
30.95
30.51
30.18
30.22
30.53
30.68
30.03
28.01
24.49
19.80
14.64
9.82
5.98
3.46
2.16
1.68
1.43
0.74
-1.04
-4.38
-9.49
-16.15
-23.63
-30.72
-35.95
-37.97
-35.95
-29.87
-20.54
-9.34
2.25
13.02
22.29
29.83
35.64
39.78
42.24
42.91
41.77
38.95
34.83
29.98
25.11
20.87
17.64
15.44
13.98
12.76
11.43
9.85
8.15
6.51
4.97
3.30
1.10
-2.11
-6.67
-12.70
-20.12
-28.55
-37.16
-44.61
-49.16
-49.13
-43.48
-32.39
-17.33
-0.68
15.06
28.02
37.30
42.97
45.66
46.14
45.10
43.06
40.48
37.74
35.14
32.81
30.71
28.60
26.19
23.20
19.42
14.80
9.41
3.52
-2.50
-8.27
-13.53
-18.25
-22.65
-27.09
-31.96
-37.53
-43.89
-50.95
-58.34
-65.42
-71.24
-74.69
-74.67
-70.48
-62.05
-50.05
-35.73
-20.59
-6.02
7.00
17.94
26.66
33.22
37.86
40.82
42.41
42.96
42.72
41.85
40.37
38.17
35.13
31.21
26.56
21.51
16.50
11.96
8.17
5.17
2.72
0.49
-1.88
-4.66
-7.97
-11.96
-16.82
-22.81
-30.03
-38.09
-46.00
-52.17
-54.92
-53.01
-46.15
-35.11
-21.43
-6.91
6.91
19.07
29.10
36.83
42.19
45.16
45.84
44.52
41.75
38.17
34.37
30.70
27.21
23.77
20.20
16.39
12.38
8.27
4.18
0.18
-3.71
-7.46
-11.04
-14.37
-17.42
-20.28
-23.16
-26.43
-30.44
-35.41
-41.18
-47.14
-52.33
-55.53
-55.70
-52.24
-45.20
-35.27
-23.63
-11.64
-0.53
8.84
16.05
21.09
24.27
26.00
26.60
26.25
24.93
22.60
19.27
15.16
10.65
6.19
2.17
-1.18
-3.90
-6.21
-8.42
-10.82
-13.50
-16.36
-19.07
-21.31
-22.93
-24.12
-25.42
-27.51
-30.83
-35.27
-39.98
-43.59
-44.57
-41.69
-34.40
-22.93
-8.28
8.01
24.05
37.93
48.09
53.74
55.14
53.55
50.74
48.31
46.95
46.37
45.63
43.84
40.75
36.86
33.01
29.85
27.32
24.76
21.31
16.50
10.55
4.29
-1.30
-5.64
-8.82
-11.58
-14.90
-19.56
-25.76
-33.08
-40.63
-47.34
-52.22
-54.55
-53.88
-50.05
-43.20
-33.74
-22.40
-10.15
1.94
12.85
21.80
28.35
32.37
33.97
33.47
31.27
27.84
23.69
19.30
15.07
11.23
7.74
4.41
1.00
-2.61
-6.39
-10.12
-13.57
-16.54
-19.02
-21.08
-22.92
-24.82
-27.16
-30.34
-34.65
-40.00
-45.75
-50.78
-53.64
-53.08
-48.41
-39.82
-28.28
-15.23
-2.16
9.81
20.04
28.36
34.78
39.35
42.06
42.92
42.03
39.70
36.43
32.77
29.15
25.77
22.56
19.31
15.83
12.12
8.42
5.03
2.24
0.08
-1.64
-3.34
-5.48
-8.48
-12.64
-18.04
-24.59
-31.77
-38.69
-44.05
-46.56
-45.22
-39.76
-30.75
-19.39
-7.11
4.79
15.42
24.30
31.25
36.20
39.17
40.24
39.64
37.73
34.96
31.74
28.28
24.64
20.68
16.29
11.40
6.21
1.05
-3.64
-7.52
-10.48
-12.67
-14.51
-16.55
-19.39
-23.51
-29.11
-35.98
-43.37
-50.03
-54.51
-55.51
-52.31
-45.02
-34.53
-22.20
-9.43
2.71
13.57
22.85
30.39
36.01
39.52
40.80
39.99
37.53
34.02
30.08
26.14
22.31
18.45
14.30
9.73
4.86
0.09
-4.10
-7.31
-9.53
-11.15
-12.94
-15.76
-20.24
-26.55
-34.28
-42.52
-50.05
-55.68
-58.46
-57.89
-54.04
-47.49
-39.22
-30.39
-22.09
-15.19
-10.06
-6.62
-4.47
-3.21
-2.77
-3.48
-5.90
-10.33
-16.50
-23.50
-30.22
-35.89
-40.44
-44.40
-48.39
-52.46
-55.86
-57.32
-55.80
-51.20
-44.72
-38.53
-34.79
-34.67
-37.66
-41.48
-42.78
-38.21
-25.47
-3.99
25.09
59.55
96.87
134.82
171.66
205.84
235.70
259.37
275.00
281.18
277.32
263.92
242.57
215.76
186.55
158.03
132.72
112.13
96.64
85.66
78.16
73.22
70.31
69.25
69.76
71.10
71.89
70.29
64.39
52.64
34.41
10.38
-17.27
-45.04
-68.84
-85.22
-92.38
-90.74
-82.60
-71.08
-59.01
-47.98
-38.50
-30.46
-23.87
-19.17
-16.97
-17.57
-20.45
-24.40
-28.04
-30.40
-31.34
-31.53
-32.06
-33.75
-36.76
-40.60
-44.37
-47.35
-49.41
-51.19
-53.96
-59.10
-67.60
-79.58
-94.08
-109.23
-122.77
-132.58
-137.28
-136.51
-130.93
-121.92
-111.15
-100.22
-90.53
-83.15
-78.88
-78.20
-81.19
-87.36
-95.63
-104.42
-111.84
-116.04
-115.55
-109.72
-98.81
-83.97
-66.86
-49.11
-31.88
-15.63
-0.31
14.17
27.50
38.76
46.59
49.79
47.77
40.91
30.36
17.80
4.99
-6.42
-15.07
-19.98
-20.63
-17.14
-10.28
-1.26
8.57
18.04
26.37
33.11
37.96
40.70
41.23
39.81
37.17
34.45
32.78
32.84
34.50
36.85
38.66
38.89
37.26
34.30
31.05
28.58
27.45
27.61
28.50
29.46
30.01
29.96
29.33
28.14
26.33
23.81
20.55
16.78
12.99
9.91
8.43
9.45
13.62
21.04
31.05
42.20
52.57
60.38
64.56
65.07
62.78
58.93
54.53
49.96
45.06
39.51
33.29
26.90
21.09
16.51
13.23
10.73
8.12
4.69
0.25
-4.77
-9.66
-13.86
-17.23
-20.17
-23.30
-27.17
-31.97
-37.63
-43.84
-50.26
-56.44
-61.77
-65.41
-66.39
-63.86
-57.44
-47.47
-34.89
-21.08
-7.39
5.18
16.12
25.35
32.91
38.73
42.59
44.25
43.78
41.67
38.81
36.10
34.08
32.66
31.26
29.21
26.18
22.40
18.52
15.19
12.63
10.48
8.03
4.57
-0.25
-6.20
-12.75
-19.37
-25.87
-32.44
-39.36
-46.64
-53.54
-58.58
-60.02
-56.49
-47.64
-34.34
-18.46
-2.25
12.34
24.11
32.57
37.77
39.92
39.29
36.19
31.05
24.51
17.32
10.20
3.69
-1.86
-6.31
-9.64
-11.90
-13.25
-13.98
-14.44
-14.95
-15.71
-16.73
-17.86
-18.96
-19.99
-21.11
-22.60
-24.74
-27.65
-31.26
-35.34
-39.46
-43.10
-45.61
-46.29
-44.52
-39.92
-32.59
-23.11
-12.48
-1.89
7.59
15.21
20.47
23.03
22.59
18.76
11.24
-0.09
-14.98
-32.73
-52.09
-71.30
-88.31
-101.14
-108.34
-109.40
-104.87
-96.09
-84.73
-72.17
-59.31
-46.55
-34.11
-22.37
-11.99
-3.82
1.46
3.58
2.92
0.42
-2.61
-4.73
-4.68
-1.60
4.83
14.37
26.19
39.18
52.07
63.75
73.46
80.85
85.93
88.90
90.00
89.37
86.99
82.80
76.82
69.26
60.58
51.45
42.56
34.55
27.85
22.70
19.13
16.88
15.50
14.33
12.72
10.22
6.80
2.71
-1.73
-6.50
-12.08
-19.14
-28.00
-38.02
-47.53
-54.19
-55.89
-51.54
-41.47
-27.28
-11.24
4.45
18.13
28.90
36.59
41.51
44.19
45.25
45.18
44.33
42.92
41.09
38.90
36.33
33.16
28.97
23.30
15.88
6.95
-2.66
-11.69
-18.99
-23.88
-26.59
-28.15
-29.96
-33.28
-38.80
-46.52
-55.80
-65.61
-74.59
-81.04
-83.12
-79.12
-68.02
-50.04
-26.76
-0.90
24.52
46.92
64.78
77.71
86.25
91.27
93.64
93.89
92.18
88.38
82.29
73.87
63.48
51.90
40.26
29.73
21.24
15.19
11.45
9.38
7.94
6.02
2.58
-2.97
-10.72
-20.10
-30.11
-39.62
-47.82
-54.44
-59.83
-64.71
-69.79
-75.35
-81.02
-85.76
-88.17
-86.82
-80.78
-69.85
-54.76
-36.95
-18.25
-0.38
15.34
28.14
37.71
43.98
47.00
46.96
44.31
39.90
34.92
30.61
27.88
26.99
27.51
28.60
29.35
29.16
27.87
25.63
22.72
19.37
15.68
11.69
7.49
3.21
-0.97
-5.02
-9.11
-13.70
-19.31
-26.20
-34.05
-41.85
-48.05
-51.09
-49.88
-44.14
-34.40
-21.93
-8.43
4.20
14.15
20.08
21.52
19.02
14.04
8.35
3.26
-0.93
-4.87
-9.61
-15.76
-22.95
-29.89
-34.93
-36.89
-35.56
-31.73
-26.72
-21.78
-17.72
-14.77
-12.88
-11.97
-12.24
-14.06
-17.83
-23.70
-31.29
-39.72
-47.67
-53.72
-56.68
-55.90
-51.36
-43.63
-33.65
-22.56
-11.47
-1.43
6.68
12.24
14.89
14.61
11.65
6.35
-0.94
-9.87
-20.01
-30.59
-40.48
-48.45
-53.60
-55.84
-55.99
-55.40
-55.28
-56.02
-56.97
-56.79
-54.11
-48.25
-39.53
-29.13
-18.56
-9.23
-2.09
2.38
4.13
3.53
1.36
-1.19
-2.76
-2.01
1.98
9.44
19.93
32.45
45.69
58.42
69.72
79.12
86.64
92.67
97.71
102.14
106.00
108.96
110.43
109.89
107.15
102.53
96.78
90.79
85.26
80.39
75.90
71.22
65.84
59.54
52.47
44.99
37.45
30.00
22.45
14.47
5.78
-3.67
-13.49
-22.86
-30.68
-35.83
-37.42
-35.09
-29.07
-20.11
-9.39
1.85
12.44
21.56
28.78
34.06
37.64
39.84
40.98
41.19
40.49
38.88
36.40
33.26
29.75
26.15
22.56
18.89
14.94
10.49
5.46
0.02
-5.50
-10.67
-15.17
-18.88
-21.95
-24.76
-27.79
-31.57
-36.55
-42.96
-50.65
-58.96
-66.76
-72.61
-75.30
-74.15
-69.34
-61.80
-52.86
-43.78
-35.43
-28.20
-22.18
-17.32
-13.51
-10.58
-8.19
-5.88
-3.22
0.05
3.84
7.84
11.63
14.89
17.49
19.46
20.88
21.73
21.94
21.34
19.84
17.46
14.34
10.73
6.88
2.98
-0.86
-4.60
-8.28
-11.99
-15.83
-19.82
-23.71
-26.91
-28.50
-27.43
-22.92
-14.73
-3.39
10.03
24.15
37.71
49.82
59.97
67.91
73.59
77.01
78.22
77.36
74.58
70.05
63.97
56.61
48.30
39.50
30.70
22.31
14.54
7.42
0.80
-5.47
-11.49
-17.24
-22.63
-27.61
-32.21
-36.61
-41.06
-45.77
-50.74
-55.68
-59.93
-62.55
-62.57
-59.29
-52.55
-42.80
-31.06
-18.57
-6.49
4.33
13.45
20.78
26.41
30.50
33.14
34.40
34.37
33.25
31.33
29.04
26.74
24.71
22.96
21.25
19.19
16.45
12.92
8.78
4.52
0.65
-2.48
-4.81
-6.61
-8.36
-10.57
-13.61
-17.57
-22.25
-27.08
-31.29
-33.97
-34.35
-32.00
-26.96
-19.82
-11.50
-3.04
4.69
11.16
16.20
19.89
22.38
23.79
24.12
23.32
21.41
18.53
14.97
11.09
7.19
3.38
-0.43
-4.40
-8.64
-13.07
-17.42
-21.31
-24.45
-26.68
-28.04
-28.71
-28.91
-28.86
-28.78
-28.87
-29.21
-29.64
-29.70
-28.63
-25.61
-20.04
-11.79
-1.29
10.55
22.63
33.95
43.79
51.79
57.83
61.89
63.93
63.87
61.68
57.53
51.82
45.19
38.39
32.08
26.69
22.37
19.09
16.71
15.06
14.01
13.52
13.59
14.28
15.75
18.12
21.42
25.48
29.92
34.14
37.55
39.75
40.71
40.83
40.87
41.68
44.01
48.32
54.67
62.62
71.33
79.59
86.08
89.52
88.90
83.66
73.80
59.85
42.80
23.99
5.00
-12.66
-27.71
-39.39
-47.63
-52.99
-56.44
-59.07
-61.74
-64.87
-68.44
-72.10
-75.42
-78.03
-79.87
-81.15
-82.26
-83.59
-85.29
-87.12
-88.42
-88.28
-85.81
-80.41
-72.05
-61.26
-48.98
-36.33
-24.29
-13.55
-4.50
2.69
7.94
11.23
12.56
12.13
10.25
7.41
4.15
0.95
-1.84
-4.01
-5.48
-6.27
-6.51
-6.40
-6.18
-6.09
-6.25
-6.68
-7.28
-7.94
-8.72
-9.82
-11.57
-14.27
-17.95
-22.31
-26.61
-29.85
-31.02
-29.42
-24.79
-17.47
-8.24
1.91
12.02
21.30
29.22
35.49
39.90
42.39
42.99
41.87
39.35
35.81
31.62
27.05
22.28
17.38
12.42
7.44
2.53
-2.25
-6.81
-11.08
-15.00
-18.54
-21.70
-24.58
-27.33
-30.16
-33.28
-36.78
-40.53
-44.09
-46.79
-47.83
-46.57
-42.66
-36.23
-27.78
-18.07
-7.99
1.69
10.30
17.39
22.68
26.07
27.63
27.61
26.30
24.01
21.03
17.64
14.11
10.72
7.69
5.10
2.89
0.96
-0.75
-2.29
-3.73
-5.39
-7.84
-11.69
-17.36
-24.78
-33.32
-42.02
-49.88
-56.13
-60.29
-62.06
-61.26
-57.75
-51.59
-43.15
-33.10
-22.23
-11.32
-0.92
8.59
16.96
23.99
29.63
34.03
37.60
40.96
44.82
49.81
56.32
64.36
73.55
83.05
91.80
98.73
103.11
104.72
103.85
101.05
96.87
91.57
85.13
77.27
67.75
56.42
43.42
29.14
14.35
0.17
-12.10
-21.23
-26.55
-28.26
-27.40
-25.52
-24.06
-23.83
-24.87
-26.67
-28.65
-30.54
-32.42
-34.62
-37.36
-40.59
-44.00
-47.17
-49.82
-51.89
-53.44
-54.55
-55.14
-54.90
-53.49
-50.67
-46.53
-41.52
-36.38
-31.92
-28.79
-27.30
-27.45
-29.02
-31.68
-35.08
-38.72
-41.89
-43.66
-43.00
-39.08
-31.49
-20.47
-6.88
8.08
23.14
37.25
49.68
60.02
68.09
73.78
77.06
78.08
77.22
75.18
72.83
71.02
70.37
71.10
73.19
76.47
80.86
86.41
93.14
100.77
108.52
114.98
118.40
117.16
110.17
97.22
78.97
56.65
31.74
5.84
-19.41
-42.13
-60.28
-71.95
-75.95
-72.48
-63.16
-50.80
-38.41
-28.37
-21.79
-18.56
-17.83
-18.67
-20.54
-23.27
-26.86
-31.13
-35.61
-39.73
-43.12
-45.81
-48.16
-50.64
-53.42
-56.18
-58.25
-58.94
-57.91
-55.40
-52.18
-49.20
-47.25
-46.77
-47.88
-50.52
-54.58
-59.86
-65.82
-71.49
-75.45
-76.28
-72.90
-65.06
-53.40
-39.18
-23.94
-9.01
4.67
16.50
26.07
32.99
36.89
37.60
35.28
30.58
24.47
18.03
12.12
7.13
2.97
-0.70
-4.22
-7.73
-11.12
-14.22
-16.98
-19.64
-22.61
-26.28
-30.87
-36.33
-42.54
-49.39
-56.84
-64.77
-72.67
-79.54
-83.94
-84.51
-80.47
-71.97
-60.05
-46.29
-32.29
-19.19
-7.55
2.58
11.37
18.96
25.41
30.69
34.82
37.92
40.24
42.00
43.29
43.98
43.82
42.57
40.19
36.89
33.03
28.91
24.59
19.82
14.23
7.53
-0.28
-8.88
-17.87
-26.91
-35.88
-44.82
-53.66
-62.08
-69.38
-74.71
-77.38
-77.03
-73.60
-67.11
-57.45
-44.39
-27.97
-8.86
11.43
30.87
47.49
60.01
68.21
72.70
74.50
74.55
73.44
71.48
68.93
66.09
63.27
60.64
58.11
55.33
51.87
47.41
41.93
35.78
29.57
23.90
19.18
15.39
12.06
8.51
4.05
-1.56
-7.97
-14.16
-18.75
-20.39
-18.24
-12.28
-3.26
7.47
18.44
28.45
36.76
43.14
47.73
50.75
52.38
52.75
51.93
50.06
47.47
44.58
41.86
39.65
38.12
37.26
36.91
36.90
37.03
37.16
37.13
36.74
35.79
34.12
31.66
28.44
24.51
19.82
14.19
7.33
-0.91
-10.39
-20.52
-30.28
-38.42
-43.75
-45.40
-43.14
-37.39
-29.23
-20.08
-11.36
-4.14
1.12
4.52
6.46
7.41
7.61
7.20
6.36
5.40
4.76
4.67
4.88
4.63
2.94
-0.97
-7.18
-15.09
-23.65
-31.83
-39.07
-45.39
-51.21
-57.07
-63.38
-70.30
-77.70
-85.23
-92.24
-97.84
-101.04
-100.88
-96.85
-89.05
-78.29
-65.86
-53.23
-41.60
-31.66
-23.54
-17.03
-11.78
-7.63
-4.56
-2.63
-1.77
-1.68
-1.79
-1.50
-0.43
1.42
3.67
5.71
6.94
7.03
5.98
4.05
1.65
-0.89
-3.45
-6.22
-9.64
-14.31
-20.74
-29.11
-38.91
-48.75
-56.45
-59.46
-55.55
-43.68
-24.47
-0.22
25.70
49.76
69.24
82.77
90.36
92.94
91.77
87.96
82.31
75.34
67.50
59.28
51.07
43.07
35.07
26.67
17.41
7.24
-3.43
-13.73
-22.67
-29.53
-34.04
-36.40
-37.01
-36.26
-34.42
-31.76
-28.66
-25.68
-23.45
-22.33
-22.13
-22.08
-21.08
-18.05
-12.40
-4.22
5.77
16.51
26.87
36.03
43.48
49.07
52.92
55.33
56.69
57.32
57.42
56.97
55.74
53.49
50.17
46.02
41.52
37.27
33.67
30.82
28.45
26.12
23.44
20.20
16.41
12.15
7.46
2.35
-3.19
-9.06
-15.04
-20.93
-26.53
-31.66
-36.06
-39.18
-40.28
-38.56
-33.58
-25.52
-15.24
-4.11
6.43
15.29
21.92
26.32
28.78
29.67
29.25
27.70
25.18
21.99
18.58
15.46
12.93
10.81
8.47
5.01
-0.20
-7.20
-15.30
-23.44
-30.67
-36.60
-41.49
-45.99
-50.66
-55.68
-60.82
-65.60
-69.67
-72.89
-75.28
-76.78
-77.00
-75.25
-70.69
-62.68
-50.97
-36.00
-18.78
-0.68
16.79
32.19
44.26
52.03
54.92
53.05
47.31
39.41
31.53
25.78
23.62
25.55
31.13
39.29
48.82
58.46
67.21
74.31
79.35
82.25
83.32
83.25
83.04
83.85
86.35
90.47
95.46
99.92
102.11
100.58
94.67
84.87
73.10
61.50
52.05
46.17
44.44
46.54
51.48
57.60
62.80
65.05
62.05
52.06
34.69
11.13
-15.82
-42.29
-64.32
-81.34
-91.04
-92.26
-86.06
-75.25
-63.32
-53.71
-49.29
-52.40
-63.55
-80.57
-98.67
-112.45
-116.51
-107.45
-85.34
-53.70
-18.62
14.13
38.86
52.04
55.59
55.25
56.49
61.26
69.06
74.39
72.43
61.09
41.68
18.13
-4.98
-24.53
-40.04
-51.66
-60.64
-68.10
-74.37
-78.59
-79.34
-75.90
-69.02
-60.73
-53.26
-48.58
-47.21
-48.49
-51.16
-54.18
-57.40
-61.52
-67.26
-74.46
-82.03
-87.73
-89.09
-84.20
-72.54
-55.19
-34.40
-12.80
7.48
24.96
39.11
50.00
57.92
63.02
65.19
64.13
59.70
52.25
42.69
32.40
22.74
14.69
8.44
3.50
-0.98
-5.71
-10.91
-16.25
-21.03
-24.50
-26.05
-25.36
-22.39
-17.30
-10.44
-2.24
6.79
16.18
25.49
34.34
42.33
48.96
53.72
56.25
56.54
55.01
52.40
49.40
46.44
43.57
40.71
37.99
35.91
35.32
37.01
41.31
47.87
55.69
63.49
70.12
74.80
77.16
77.22
75.24
71.78
67.60
63.71
61.11
60.58
62.20
65.15
67.81
68.20
64.65
56.43
43.87
28.18
10.89
-6.64
-23.45
-38.88
-52.40
-63.44
-71.57
-76.72
-79.30
-80.12
-80.05
-79.60
-78.85
-77.42
-74.91
-71.06
-65.90
-59.72
-52.91
-45.96
-39.33
-33.49
-28.88
-25.71
-23.93
-23.16
-22.92
-22.82
-22.80
-23.19
-24.43
-26.88
-30.50
-34.79
-38.93
-41.92
-42.92
-41.37
-37.21
-30.98
-23.76
-17.02
-12.27
-10.56
-12.12
-16.19
-21.16
-25.01
-25.87
-22.55
-14.75
-3.07
11.22
26.51
41.18
53.83
63.35
69.03
70.56
68.10
62.25
54.00
44.57
35.17
26.84
20.31
15.93
13.66
13.09
13.45
13.71
12.82
9.89
4.53
-3.13
-12.44
-22.55
-32.63
-42.09
-50.68
-58.41
-65.45
-72.02
-78.27
-84.21
-89.62
-94.02
-96.77
-97.19
-94.83
-89.67
-82.16
-73.11
-63.44
-53.93
-45.13
-37.35
-30.83
-25.76
-22.36
-20.67
-20.29
-20.35
-19.59
-16.83
-11.54
-4.23
3.57
9.81
12.61
10.96
5.17
-3.38
-12.52
-19.93
-23.60
-22.11
-14.86
-2.16
14.77
33.92
52.84
69.20
81.40
88.91
92.34
92.96
92.11
90.61
88.58
85.55
80.99
74.66
66.80
58.03
49.03
40.30
32.03
24.25
16.94
10.16
4.02
-1.38
-5.98
-9.77
-12.75
-14.91
-16.33
-17.17
-17.63
-17.97
-18.38
-18.98
-19.89
-21.19
-23.01
-25.40
-28.32
-31.67
-35.31
-39.06
-42.68
-45.73
-47.55
-47.35
-44.45
-38.65
-30.37
-20.56
-10.42
-1.05
6.89
13.20
17.94
21.35
23.61
24.92
25.44
25.44
25.20
24.98
24.87
24.77
24.37
23.25
21.13
17.96
14.05
10.01
6.57
4.26
3.16
2.78
2.20
0.33
-3.67
-10.10
-18.53
-27.88
-36.65
-43.33
-46.66
-45.98
-41.26
-33.15
-22.77
-11.55
-0.91
8.04
14.69
18.98
21.31
22.28
22.43
22.10
21.42
20.38
19.04
17.53
15.98
14.41
12.69
10.60
8.06
5.19
2.40
0.14
-1.29
-1.98
-2.29
-2.82
-4.18
-6.76
-10.67
-15.67
-21.14
-26.19
-29.68
-30.55
-28.13
-22.41
-14.09
-4.40
5.32
13.99
21.01
26.18
29.57
31.22
31.12
29.33
26.05
21.74
17.06
12.64
8.86
5.72
2.96
0.19
-2.86
-6.15
-9.43
-12.28
-14.38
-15.69
-16.50
-17.37
-18.88
-21.47
-25.24
-29.96
-35.12
-40.01
-43.87
-45.95
-45.58
-42.32
-36.04
-27.11
-16.33
-4.78
6.35
16.09
23.80
29.17
32.19
33.04
32.02
29.54
26.08
22.15
18.21
14.59
11.42
8.67
6.17
3.84
1.72
0.10
-0.61
-0.06
1.71
4.12
5.94
5.59
1.60
-6.86
-19.51
-34.93
-50.75
-64.24
-72.92
-75.12
-70.35
-59.23
-43.36
-24.79
-5.76
11.76
26.27
36.80
42.96
44.93
43.38
39.33
33.96
28.26
22.93
18.15
13.73
9.24
4.38
-0.94
-6.42
-11.51
-15.63
-18.36
-19.71
-20.10
-20.31
-21.23
-23.57
-27.62
-33.03
-38.82
-43.65
-46.11
-45.14
-40.34
-32.05
-21.19
-9.02
3.29
14.74
24.70
32.78
38.78
42.64
44.43
44.44
43.11
40.97
38.50
35.97
33.44
30.81
27.94
24.80
21.51
18.31
15.40
12.88
10.65
8.39
5.62
1.73
-3.83
-11.34
-20.54
-30.51
-39.69
-46.25
-48.64
-46.13
-39.01
-28.50
-16.31
-4.06
7.09
16.55
24.20
30.12
34.36
36.91
37.78
37.13
35.38
33.09
30.85
29.04
27.63
26.34
24.70
22.42
19.51
16.27
13.11
10.35
7.99
5.72
3.04
-0.59
-5.56
-11.99
-19.54
-27.46
-34.57
-39.51
-41.10
-38.68
-32.34
-22.92
-11.71
-0.11
10.71
19.91
27.01
31.81
34.31
34.72
33.42
30.96
27.92
24.78
21.81
19.10
16.50
13.83
10.93
7.75
4.39
0.98
-2.31
-5.43
-8.47
-11.68
-15.41
-20.01
-25.73
-32.58
-40.19
-47.75
-53.99
-57.38
-56.48
-50.49
-39.50
-24.69
-8.03
8.32
22.60
33.78
41.72
46.82
49.69
50.89
50.80
49.72
47.95
45.81
43.59
41.52
39.64
37.87
36.05
33.98
31.51
28.49
24.81
20.34
14.99
8.63
1.24
-7.15
-16.40
-26.20
-35.97
-44.87
-51.79
-55.48
-54.91
-49.56
-39.63
-26.14
-10.63
5.20
19.94
32.65
42.84
50.27
54.76
56.10
54.19
49.27
42.05
33.62
25.21
17.82
11.99
7.70
4.58
2.11
-0.07
-2.17
-4.17
-5.96
-7.53
-8.99
-10.61
-12.74
-15.75
-19.83
-24.95
-30.58
-35.81
-39.34
-39.84
-36.38
-28.70
-17.45
-4.00
9.85
22.48
32.75
40.15
44.79
47.04
47.33
46.00
43.30
39.51
35.08
30.57
26.57
23.41
21.04
19.08
16.95
14.16
10.53
6.24
1.72
-2.57
-6.38
-9.74
-12.91
-16.32
-20.36
-25.32
-31.26
-37.95
-44.77
-50.76
-54.70
-55.41
-52.08
-44.59
-33.58
-20.34
-6.43
6.72
18.11
27.28
34.15
38.83
41.47
42.21
41.20
38.71
35.09
30.79
26.24
21.81
17.69
13.91
10.40
7.01
3.65
0.31
-2.93
-6.00
-8.89
-11.72
-14.73
-18.19
-22.32
-27.31
-33.18
-39.81
-46.75
-53.20
-58.07
-60.17
-58.60
-53.00
-43.74
-31.78
-18.35
-4.69
8.15
19.39
28.51
35.18
39.34
41.17
41.06
39.53
37.08
34.11
30.90
27.65
24.45
21.35
18.27
15.07
11.61
7.85
3.95
0.18
-3.18
-6.06
-8.58
-11.04
-13.81
-17.12
-21.12
-25.80
-30.98
-36.31
-41.16
-44.61
-45.69
-43.63
-38.18
-29.76
-19.27
-7.85
3.48
13.97
23.14
30.67
36.21
39.43
40.12
38.35
34.50
29.28
23.52
17.97
13.13
9.21
6.17
3.83
1.95
0.36
-1.05
-2.35
-3.55
-4.73
-6.02
-7.65
-10.00
-13.48
-18.43
-24.87
-32.36
-39.92
-46.19
-49.78
-49.70
-45.63
-38.01
-27.84
-16.37
-4.76
6.11
15.62
23.38
29.12
32.69
34.05
33.34
30.93
27.32
23.07
18.72
14.63
10.99
7.81
4.96
2.38
0.05
-1.94
-3.47
-4.49
-5.12
-5.62
-6.40
-7.92
-10.58
-14.65
-20.08
-26.39
-32.65
-37.57
-39.83
-38.49
-33.26
-24.64
-13.69
-1.75
9.98
20.63
29.64
36.69
41.60
44.28
44.79
43.34
40.28
36.14
31.43
26.65
22.11
17.95
14.05
10.14
5.94
1.31
-3.56
-8.31
-12.46
-15.74
-18.18
-20.21
-22.42
-25.45
-29.68
-35.11
-41.24
-47.18
-51.74
-53.73
-52.27
-47.04
-38.41
-27.29
-14.91
-2.48
9.03
18.95
26.96
32.92
36.87
38.96
39.46
38.72
37.09
34.89
32.30
29.41
26.20
22.64
18.71
14.49
10.10
5.72
1.57
-2.17
-5.38
-8.10
-10.56
-13.16
-16.39
-20.71
-26.28
-32.89
-39.81
-45.90
-49.83
-50.44
-47.04
-39.65
-29.01
-16.41
-3.30
9.04
19.72
28.37
34.98
39.72
42.76
44.17
43.95
42.14
38.87
34.43
29.23
23.72
18.29
13.21
8.55
4.26
0.25
-3.56
-7.20
-10.58
-13.64
-16.35
-18.82
-21.37
-24.39
-28.33
-33.51
-39.98
-47.44
-55.16
-62.08
-66.91
-68.54
-66.23
-59.93
-50.34
-38.77
-26.71
-15.46
-5.73
2.46
9.62
16.47
23.53
30.88
38.10
44.39
48.80
50.52
49.01
44.16
36.31
26.21
14.98
3.89
-5.80
-13.07
-17.32
-18.43
-16.74
-12.93
-7.89
-2.64
1.71
4.01
3.27
-1.09
-8.89
-19.00
-29.38
-37.53
-41.15
-38.84
-30.48
-17.22
-0.96
16.23
32.61
47.02
58.74
67.31
72.27
73.32
70.41
63.96
54.98
44.86
35.10
27.03
21.57
19.16
19.79
22.98
27.81
32.94
36.85
38.20
36.33
31.50
24.82
17.81
11.72
6.96
3.06
-1.01
-6.10
-12.30
-18.60
-23.15
-23.90
-19.50
-9.94
3.28
17.49
29.53
36.72
37.65
32.70
23.95
15.01
9.82
11.54
21.16
36.56
52.61
62.45
59.90
41.96
10.22
-29.71
-70.43
-105.37
-130.67
-145.17
-149.33
-143.73
-128.66
-104.74
-74.18
-41.30
-11.75
9.25
18.93
17.74
9.00
-2.65
-12.85
-18.66
-18.77
-13.32
-3.65
8.46
21.03
32.45
41.66
48.29
52.40
54.18
53.78
51.18
46.48
40.02
32.47
24.67
17.39
11.08
5.83
1.40
-2.58
-6.40
-10.20
-13.93
-17.42
-20.46
-22.98
-25.09
-27.06
-29.19
-31.73
-34.75
-38.25
-42.22
-46.58
-51.15
-55.32
-58.03
-57.84
-53.32
-43.66
-29.06
-10.90
8.56
26.84
41.88
52.52
58.67
61.12
61.12
60.04
59.07
59.11
60.70
64.07
69.00
74.78
80.24
83.90
84.37
80.75
72.90
61.47
47.67
32.98
18.74
6.04
-4.44
-12.48
-18.35
-22.84
-27.14
-32.52
-39.81
-49.06
-59.36
-69.16
-76.81
-81.20
-82.08
-80.07
-76.26
-71.80
-67.54
-63.93
-61.12
-59.16
-58.09
-57.99
-58.83
-60.46
-62.54
-64.66
-66.43
-67.52
-67.80
-67.32
-66.23
-64.73
-62.90
-60.66
-57.77
-54.00
-49.29
-43.85
-38.20
-33.07
-29.19
-27.05
-26.72
-27.74
-29.21
-29.86
-28.37
-23.63
-15.03
-2.57
13.10
30.91
49.60
67.99
85.12
100.30
113.04
123.03
130.07
134.19
135.64
134.95
132.85
130.19
127.88
126.76
127.24
129.03
130.90
131.01
127.57
119.81
108.51
95.76
83.98
74.73
67.90
61.96
54.92
45.49
33.72
20.76
8.10
-3.28
-13.15
-21.71
-29.04
-34.83
-38.47
-39.65
-38.69
-36.69
-35.14
-35.32
-37.85
-42.49
-48.36
-54.35
-59.47
-63.04
-64.64
-64.00
-61.08
-56.14
-49.97
-43.83
-39.15
-37.11
-38.18
-42.07
-47.92
-54.75
-61.89
-69.08
-76.43
-84.11
-92.03
-99.84
-106.86
-112.36
-115.67
-116.35
-114.22
-109.37
-102.05
-92.60
-81.43
-68.89
-55.47
-41.76
-28.56
-16.75
-7.09
0.05
4.88
8.17
11.10
14.84
20.23
27.45
35.76
43.60
48.92
49.75
44.86
34.30
19.55
3.22
-11.70
-22.73
-28.74
-30.17
-28.68
-26.36
-24.79
-24.57
-25.25
-25.80
-25.17
-22.70
-18.22
-11.88
-3.94
5.38
15.90
27.22
38.78
49.83
59.69
67.86
74.18
78.79
82.00
84.18
85.54
86.06
85.49
83.51
79.98
75.07
69.34
63.50
58.10
53.18
48.18
42.11
33.99
23.30
10.35
-3.68
-16.97
-27.53
-33.64
-34.26
-29.23
-19.31
-6.02
8.75
23.06
35.33
44.60
50.59
53.55
54.11
52.93
50.63
47.76
44.81
42.32
40.72
40.25
40.74
41.56
41.76
40.31
36.47
30.00
21.24
10.89
-0.26
-11.60
-22.85
-34.01
-45.13
-56.10
-66.47
-75.43
-81.98
-85.23
-84.62
-80.21
-72.66
-63.07
-52.69
-42.67
-33.84
-26.69
-21.43
-18.08
-16.59
-16.75
-18.24
-20.55
-23.08
-25.32
-26.96
-28.04
-28.90
-30.06
-31.99
-34.75
-37.89
-40.43
-41.14
-39.13
-34.33
-27.75
-21.15
-16.37
-14.55
-15.67
-18.56
-21.47
-22.76
-21.41
-17.06
-9.79
0.16
12.59
27.22
43.50
60.42
76.56
90.37
100.50
106.18
107.39
104.90
99.94
93.98
88.30
83.76
80.71
79.00
78.02
76.77
74.09
68.81
60.25
48.47
34.45
19.75
5.91
-6.34
-17.41
-28.62
-41.51
-56.84
-73.98
-90.83
-104.59
-112.68
-113.74
-108.02
-97.10
-83.24
-68.66
-55.01
-43.18
-33.51
-26.06
-20.83
-17.82
-16.94
-17.88
-20.07
-22.80
-25.36
-27.30
-28.49
-29.08
-29.32
-29.46
-29.52
-29.39
-28.89
-27.96
-26.76
-25.65
-25.08
-25.41
-26.84
-29.34
-32.76
-36.88
-41.43
-46.00
-49.95
-52.42
-52.55
-49.72
-43.80
-35.17
-24.48
-12.27
1.20
16.07
32.44
49.92
67.45
83.25
95.46
102.86
105.43
104.38
101.71
99.40
98.76
100.06
102.70
105.28
105.80
101.70
90.41
70.40
42.32
9.66
-21.95
-46.69
-60.82
-64.19
-60.02
-53.10
-47.44
-44.62
-43.76
-42.72
-39.75
-34.42
-27.44
-19.87
-12.19
-4.10
4.99
15.38
26.62
37.48
46.50
52.65
55.71
56.26
55.35
53.91
52.46
51.00
49.26
46.95
44.04
40.78
37.66
35.12
33.43
32.53
32.07
31.41
29.81
26.57
21.33
14.18
5.48
-4.30
-14.81
-25.73
-36.70
-47.17
-56.28
-62.92
-66.07
-65.34
-61.24
-55.05
-48.32
-42.39
-37.99
-35.11
-32.93
-30.28
-26.57
-22.35
-19.01
-18.00
-20.05
-24.85
-31.10
-36.52
-38.89
-37.54
-34.09
-31.35
-31.58
-35.39
-41.67
-48.37
-52.65
-52.13
-46.79
-39.52
-34.49
-34.82
-41.36
-52.92
-66.63
-77.30
-78.01
-62.68
-28.50
23.42
88.20
157.61
221.23
262.62
266.49
231.53
174.38
117.26
74.07
46.87
30.56
18.81
8.14
-0.38
-3.30
0.87
9.18
16.17
16.58
8.79
-5.95
-24.45
-41.97
-53.79
-57.25
-53.27
-44.85
-35.32
-27.18
-21.97
-20.17
-20.86
-22.40
-21.72
-18.37
-13.05
-6.73
-0.09
6.39
12.55
18.66
25.19
32.18
38.60
43.20
45.02
43.86
40.16
34.80
28.90
23.48
19.24
16.11
13.77
11.72
9.52
6.83
3.55
-0.20
-4.04
-7.60
-10.74
-13.52
-16.11
-18.67
-21.25
-23.77
-26.23
-28.88
-32.15
-36.50
-41.89
-47.56
-52.14
-54.08
-52.24
-46.43
-37.39
-26.61
-15.75
-6.07
1.68
7.31
10.86
12.45
12.15
10.10
6.48
1.69
-3.83
-9.64
-15.45
-21.11
-26.64
-32.10
-37.54
-42.97
-48.27
-53.34
-58.11
-62.66
-67.13
-71.77
-76.82
-82.45
-88.68
-95.51
-102.88
-110.70
-118.68
-126.24
-132.52
-136.61
-137.98
-136.74
-133.59
-129.50
-125.14
-120.59
-115.47
-109.40
-102.31
-94.53
-86.27
-77.11
-65.73
-50.21
-28.72
-0.15
35.72
78.18
125.81
176.32
226.47
271.97
308.11
330.74
337.43
328.02
304.53
270.01
227.50
179.25
127.00
72.66
18.99
-30.38
-71.82
-102.80
-122.82
-133.37
-137.16
-136.73
-133.44
-127.13
-116.79
-101.54
-81.56
-58.48
-34.96
-13.85
2.73
13.87
19.99
22.44
22.95
22.90
23.10
23.74
24.61
25.43
26.00
26.20
25.92
25.09
24.00
23.47
24.87
29.71
38.90
52.13
67.70
82.83
94.51
100.27
98.85
90.28
75.72
57.07
36.74
17.27
1.01
-10.36
-16.19
-16.94
-13.92
-8.77
-2.93
2.57
7.12
10.36
11.96
11.65
9.34
5.24
-0.06
-5.69
-10.72
-14.38
-16.18
-15.93
-13.71
-9.77
-4.60
1.11
6.45
10.50
12.60
12.56
10.71
7.67
4.02
-0.15
-5.25
-11.95
-20.72
-31.26
-42.38
-52.26
-59.05
-61.51
-59.38
-53.28
-44.38
-33.80
-22.38
-10.56
1.39
13.12
24.11
33.74
41.50
47.20
50.95
53.13
54.17
54.36
53.84
52.56
50.36
47.08
42.69
37.37
31.59
26.03
21.35
18.05
16.34
16.13
17.06
18.61
20.09
20.73
19.82
17.00
12.60
7.77
4.21
3.63
6.98
13.92
22.96
31.97
39.03
43.06
43.93
42.10
38.07
31.99
23.69
13.04
0.45
-12.95
-25.54
-35.69
-42.44
-45.76
-46.60
-46.36
-46.32
-47.08
-48.43
-49.62
-49.89
-48.93
-47.08
-45.14
-44.04
-44.49
-46.68
-50.23
-54.30
-57.73
-59.33
-58.09
-53.45
-45.42
-34.53
-21.63
-7.72
6.33
19.84
32.38
43.50
52.61
58.79
60.80
57.40
47.77
32.09
11.88
-10.02
-30.09
-45.06
-52.91
-53.55
-48.70
-41.20
-34.04
-29.47
-28.42
-30.40
-33.80
-36.69
-37.72
-36.66
-34.52
-32.96
-33.29
-35.43
-37.54
-36.41
-28.81
-13.05
9.81
36.07
60.61
78.71
87.61
87.27
79.93
69.25
59.03
52.32
50.87
55.10
64.39
77.47
93.01
110.01
128.01
146.79
165.96
184.44
200.44
211.94
217.53
216.99
211.29
201.90
189.65
174.04
153.34
125.64
90.15
48.27
3.80
-37.62
-69.51
-86.23
-84.85
-66.82
-38.64
-10.67
5.89
3.20
-20.33
-59.47
-104.86
-147.17
-180.67
-204.15
-219.15
-227.12
-227.54
-218.06
-196.32
-161.73
-116.09
-62.78
-5.76
51.31
104.84
151.09
186.24
207.06
211.85
200.92
176.38
141.54
100.40
57.40
17.23
-15.76
-38.41
-49.88
-51.94
-48.35
-43.43
-40.39
-40.42
-42.73
-45.50
-47.06
-46.74
-44.97
-42.89
-41.76
-42.35
-44.74
-48.36
-52.29
-55.60
-57.72
-58.53
-58.38
-57.86
-57.54
-57.76
-58.49
-59.37
-59.90
-59.68
-58.60
-56.96
-55.45
-54.89
-55.81
-58.18
-61.17
-63.35
-63.11
-59.32
-51.87
-41.81
-31.02
-21.43
-14.24
-9.44
-6.02
-2.68
1.31
5.50
8.36
7.98
2.94
-7.03
-21.12
-37.92
-55.94
-73.70
-89.19
-99.74
-102.26
-94.44
-76.59
-52.29
-27.49
-7.72
4.89
12.46
19.45
28.87
39.29
45.40
41.68
26.81
5.44
-14.00
-24.49
-24.69
-19.48
-16.53
-21.26
-33.64
-48.74
-60.49
-65.54
-64.73
-61.54
-59.05
-58.06
-57.20
-54.48
-49.31
-43.04
-38.00
-36.32
-38.60
-43.74
-49.56
-53.68
-54.40
-51.05
-44.03
-34.49
-24.17
-14.94
-8.59
-6.44
-8.97
-15.90
-26.46
-39.71
-54.82
-71.08
-87.61
-103.10
-115.81
-123.85
-125.73
-120.97
-110.34
-95.64
-79.00
-62.16
-46.09
-31.04
-17.02
-4.16
7.08
16.01
21.99
24.77
24.71
22.74
20.16
18.47
19.33
24.24
34.03
48.30
65.47
83.11
98.63
110.12
116.80
119.42
119.80
119.85
120.92
124.15
130.74
141.73
157.26
175.88
195.12
212.13
223.91
227.86
223.37
212.30
198.16
184.60
173.69
166.26
161.70
156.93
146.37
124.63
89.01
40.41
-16.67
-75.59
-127.13
-160.93
-168.92
-148.51
-102.33
-37.38
35.68
104.87
151.29
157.57
122.86
65.54
7.53
-38.84
-71.88
-98.26
-121.42
-141.11
-153.85
-156.11
-145.52
-126.60
-107.04
-93.35
-88.21
-89.64
-93.22
-93.28
-85.32
-68.59
-47.12
-26.38
-10.35
-0.24
5.30
8.37
11.25
15.59
21.32
26.26
28.15
26.05
20.76
14.34
8.79
5.73
6.04
9.49
14.68
19.96
24.19
26.81
27.82
27.39
25.85
23.72
21.49
19.28
17.07
14.78
12.33
9.60
6.39
2.54
-1.90
-6.51
-10.42
-12.49
-11.57
-6.98
1.26
12.45
25.53
39.47
53.52
67.19
79.97
91.01
99.07
102.74
100.98
93.58
81.33
65.97
49.64
34.37
21.63
12.12
5.86
2.41
1.14
1.36
2.34
3.40
3.87
3.23
1.16
-2.35
-7.10
-12.74
-19.02
-25.87
-33.28
-41.08
-48.65
-54.92
-58.55
-58.50
-54.47
-47.09
-37.81
-28.37
-20.26
-14.30
-10.61
-8.82
-8.46
-9.18
-10.89
-13.57
-17.18
-21.50
-26.13
-30.51
-34.02
-36.09
-36.27
-34.37
-30.57
-25.55
-20.43
-16.53
-15.01
-16.44
-20.66
-26.92
-34.36
-42.60
-52.02
-63.53
-77.98
-95.14
-113.04
-127.88
-134.79
-129.21
-108.54
-73.22
-26.83
24.77
75.08
118.70
152.45
175.57
189.18
195.22
195.60
191.82
184.93
175.77
165.08
153.44
141.22
128.98
117.80
109.37
105.36
106.23
110.18
112.98
109.18
94.29
66.78
28.83
-14.64
-58.15
-97.75
-131.88
-160.63
-184.22
-201.74
-210.98
-209.61
-196.69
-173.63
-143.97
-112.15
-81.88
-54.97
-31.28
-9.63
10.72
29.09
43.28
50.57
49.16
39.43
24.20
7.78
-5.64
-13.60
-16.20
-15.73
-15.52
-18.56
-26.41
-39.07
-55.39
-73.65
-92.05
-109.07
-123.54
-134.69
-142.11
-145.65
-145.31
-141.20
-133.58
-122.96
-110.07
-95.75
-80.66
-65.13
-49.10
-32.45
-15.41
1.16
15.69
26.35
31.63
30.92
24.87
15.24
4.53
-4.71
-10.65
-12.78
-11.99
-10.16
-9.45
-11.33
-16.10
-22.78
-29.63
-34.98
-38.00
-39.18
-40.12
-42.83
-48.85
-58.48
-70.55
-82.75
-92.40
-97.22
-95.87
-88.00
-74.19
-55.86
-35.18
-14.91
1.97
12.92
16.79
14.43
8.89
4.48
5.45
14.70
33.15
59.98
93.69
133.07
177.50
226.48
278.02
327.62
368.59
393.92
398.85
382.59
348.29
301.31
247.19
189.15
127.80
63.15
-2.51
-63.02
-109.69
-134.98
-136.29
-116.70
-84.99
-52.68
-29.80
-21.26
-25.87
-38.55
-53.78
-68.14
-78.87
-84.63
-85.12
-80.02
-68.06
-47.38
-17.67
18.12
53.80
84.70
108.24
124.37
135.71
147.27
164.75
191.30
225.54
246.15
235.67
189.29
116.54
32.49
-49.93
-120.84
-173.47
-204.41
-214.58
-208.96
-191.48
-166.36
-138.00
-109.37
-80.80
-52.10
-24.04
1.22
23.53
42.44
57.96
69.78
73.04
64.90
46.00
20.42
-6.92
-31.35
-50.24
-63.68
-73.77
-82.50
-89.44
-93.36
-92.00
-84.64
-72.52
-58.93
-48.42
-45.09
-50.60
-62.85
-77.62
-90.90
-99.36
-101.68
-98.40
-91.19
-81.81
-71.29
-59.64
-46.91
-33.82
-21.97
-13.42
-9.76
-11.36
-17.31
-25.72
-34.20
-40.68
-43.86
-43.39
-39.65
-33.10
-23.87
-11.69
3.66
21.90
41.72
60.88
76.72
86.87
90.06
86.42
77.41
65.33
52.79
42.36
36.17
35.69
41.42
52.76
68.15
85.35
102.02
116.30
127.16
134.33
137.95
137.96
133.95
125.26
111.55
93.31
72.08
50.06
29.45
11.69
-2.73
-14.09
-22.90
-29.47
-33.77
-35.70
-35.53
-34.04
-32.38
-31.77
-32.97
-36.10
-40.70
-45.89
-50.77
-54.58
-56.69
-56.64
-54.08
-48.82
-40.99
-31.08
-19.79
-7.64
5.41
20.16
37.72
58.69
82.29
106.01
126.11
138.79
141.48
133.50
116.10
91.75
63.42
33.95
5.67
-19.67
-41.11
-58.45
-72.26
-83.53
-93.31
-102.27
-110.58
-118.01
-124.07
-128.33
-130.35
-130.01
-127.54
-123.72
-119.67
-116.39
-114.21
-112.40
-109.42
-103.37
-92.96
-78.04
-59.81
-40.34
-21.83
-5.98
6.55
16.04
23.83
31.65
41.24
53.57
68.66
85.61
102.78
118.45
131.08
140.07
145.53
148.17
148.49
146.92
143.79
139.25
133.69
127.05
119.39
110.49
100.47
89.51
78.88
70.82
67.76
71.51
78.56
83.89
82.34
71.74
52.71
27.76
0.35
-29.63
-62.08
-96.36
-130.82
-163.98
-190.52
-207.76
-215.36
-215.06
-209.79
-202.11
-194.01
-186.24
-178.88
-171.60
-164.79
-159.04
-154.94
-152.95
-152.99
-154.79
-157.75
-161.15
-164.02
-165.83
-165.83
-163.07
-156.62
-145.50
-129.32
-108.11
-82.35
-52.62
-19.78
15.27
51.53
87.57
121.64
151.68
175.89
193.17
203.41
207.22
205.67
199.79
190.37
177.98
163.28
147.25
131.19
116.46
103.95
93.81
85.49
78.08
70.75
63.10
55.18
47.36
39.94
33.01
26.36
19.66
12.60
5.00
-3.10
-11.44
-19.55
-26.66
-31.86
-34.22
-33.08
-28.32
-20.41
-10.37
0.51
10.98
20.10
27.29
32.28
35.05
35.68
34.39
31.49
27.44
22.74
17.88
13.18
8.83
4.85
1.18
-2.17
-5.11
-7.51
-9.33
-10.72
-12.03
-13.77
-16.35
-19.94
-24.41
-29.41
-34.54
-39.45
-44.00
-48.04
-51.33
-53.37
-53.47
-50.90
-45.21
-36.51
-25.49
-13.46
-1.87
7.93
15.13
19.51
21.37
21.29
20.07
18.68
18.16
19.36
22.40
26.26
28.78
27.39
20.27
7.51
-8.59
-24.19
-35.42
-39.97
-37.83
-31.15
-23.11
-16.68
-13.73
-14.77
-19.17
-25.59
-32.35
-37.73
-40.23
-38.83
-33.15
-23.64
-11.43
1.87
14.55
25.15
32.75
37.09
38.51
37.80
35.90
33.64
31.51
29.65
27.87
25.82
23.19
19.92
16.20
12.47
9.22
6.81
5.31
4.49
3.87
2.89
1.06
-1.99
-6.51
-12.44
-19.39
-26.43
-32.22
-35.26
-34.41
-29.24
-20.28
-8.81
3.55
15.35
25.59
33.81
39.84
43.66
45.21
44.50
41.74
37.42
32.32
27.32
23.05
19.78
17.31
15.16
12.80
9.95
6.63
3.13
-0.18
-3.05
-5.49
-7.76
-10.29
-13.52
-17.79
-23.15
-29.29
-35.45
-40.49
-43.13
-42.23
-37.22
-28.29
-16.45
-3.22
9.76
21.19
30.37
37.18
41.90
44.86
46.28
46.20
44.60
41.60
37.54
32.98
28.45
24.35
20.76
17.50
14.30
10.97
7.60
4.46
1.92
0.17
-0.86
-1.56
-2.56
-4.49
-7.90
-13.02
-19.69
-27.28
-34.73
-40.69
-43.77
-42.94
-37.83
-28.88
-17.22
-4.41
8.07
19.04
27.82
34.21
38.27
40.14
40.01
38.06
34.61
30.15
25.31
20.70
16.74
13.52
10.79
8.14
5.18
1.76
-1.93
-5.52
-8.63
-11.09
-13.02
-14.77
-16.74
-19.25
-22.47
-26.41
-30.93
-35.72
-40.23
-43.64
-44.88
-43.00
-37.41
-28.24
-16.35
-3.19
9.72
21.05
30.09
36.65
40.98
43.48
44.48
44.24
42.89
40.62
37.71
34.59
31.70
29.30
27.40
25.69
23.76
21.23
17.99
14.26
10.46
6.98
4.02
1.53
-0.72
-3.03
-5.67
-8.84
-12.72
-17.37
-22.66
-28.08
-32.67
-35.27
-34.72
-30.40
-22.42
-11.68
0.39
12.28
22.75
31.05
36.99
40.73
42.65
43.18
42.62
41.24
39.16
36.52
33.40
29.96
26.36
22.85
19.61
16.76
14.24
11.83
9.22
6.22
2.83
-0.71
-4.01
-6.77
-8.92
-10.71
-12.62
-15.17
-18.75
-23.43
-28.76
-33.78
-37.11
-37.34
-33.50
-25.56
-14.56
-2.34
9.24
18.92
26.55
32.85
38.81
44.93
50.71
54.94
56.19
53.66
47.72
39.95
32.64
28.11
28.04
32.94
41.78
51.76
58.75
58.26
47.03
24.66
-5.65
-37.71
-64.42
-80.52
-84.65
-79.77
-71.51
-65.47
-64.71
-68.85
-74.84
-79.07
-79.20
-75.03
-68.07
-60.54
-54.30
-50.29
-48.63
-48.81
-50.12
-51.82
-53.30
-54.28
-54.79
-55.00
-54.85
-53.88
-51.33
-46.54
-39.66
-31.78
-24.60
-19.66
-17.50
-17.47
-18.12
-18.02
-16.52
-13.95
-11.33
-9.82
-10.14
-12.36
-15.90
-19.83
-23.21
-25.22
-25.29
-23.08
-18.51
-11.72
-3.13
6.70
17.07
27.30
36.69
44.61
50.54
54.14
55.40
54.68
52.60
49.88
47.11
44.52
42.03
39.36
36.23
32.62
28.73
24.98
21.78
19.40
17.88
17.05
16.60
16.12
15.15
13.23
9.88
4.80
-2.00
-10.08
-18.50
-26.02
-31.37
-33.63
-32.51
-28.39
-22.16
-14.91
-7.62
-0.98
4.62
9.04
12.25
14.28
15.22
15.16
14.25
12.62
10.40
7.77
4.88
1.94
-0.88
-3.48
-5.84
-7.96
-9.77
-11.16
-12.05
-12.46
-12.63
-12.97
-13.98
-16.09
-19.48
-24.04
-29.27
-34.36
-38.26
-39.93
-38.56
-33.90
-26.32
-16.75
-6.42
3.48
12.13
19.19
24.71
28.92
32.11
34.45
36.01
36.82
36.98
36.66
36.09
35.47
34.92
34.35
33.58
32.40
30.69
28.48
25.93
23.29
20.69
18.15
15.43
12.17
7.96
2.53
-4.10
-11.50
-18.91
-25.33
-29.76
-31.49
-30.25
-26.32
-20.32
-13.09
-5.43
1.97
8.61
14.09
18.13
20.55
21.35
20.70
18.95
16.52
13.78
10.93
8.05
5.08
1.96
-1.33
-4.72
-8.01
-10.97
-13.36
-15.11
-16.27
-17.14
-18.13
-19.74
-22.41
-26.38
-31.57
-37.44
-43.07
-47.29
-48.95
-47.32
-42.31
-34.53
-25.06
-15.08
-5.59
2.85
9.99
15.77
20.18
23.15
24.63
24.69
23.59
21.69
19.40
17.06
14.79
12.54
10.15
7.42
4.28
0.88
-2.47
-5.34
-7.44
-8.70
-9.42
-10.13
-11.44
-13.78
-17.24
-21.50
-25.84
-29.38
-31.16
-30.45
-26.89
-20.61
-12.16
-2.45
7.59
17.15
25.66
32.82
38.45
42.43
44.69
45.19
44.05
41.52
38.02
34.04
30.02
26.21
22.69
19.34
16.02
12.64
9.24
6.05
3.27
1.03
-0.81
-2.65
-5.02
-8.43
-13.14
-18.95
-25.16
-30.66
-34.14
-34.46
-30.96
-23.74
-13.60
-1.77
10.55
22.53
33.82
44.51
54.85
65.03
74.99
84.57
93.55
101.73
108.88
114.68
118.70
120.50
119.73
116.16
109.69
100.31
88.22
73.92
58.39
43.05
29.35
18.48
10.97
6.58
4.66
4.49
5.57
7.76
11.12
15.80
21.95
29.73
39.18
50.15
62.12
74.18
85.13
93.70
98.81
99.71
96.17
88.46
77.41
64.26
50.42
37.16
25.25
14.89
5.69
-3.02
-11.93
-21.40
-31.49
-41.84
-51.77
-60.55
-67.59
-72.62
-75.79
-77.64
-78.90
-80.25
-82.15
-84.79
-88.09
-91.72
-95.07
-97.38
-97.80
-95.71
-90.94
-83.82
-75.11
-65.73
-56.48
-47.86
-40.14
-33.43
-27.84
-23.51
-20.53
-18.90
-18.51
-19.15
-20.61
-22.67
-25.16
-27.94
-30.87
-33.83
-36.63
-39.13
-41.16
-42.62
-43.54
-44.07
-44.51
-45.23
-46.64
-48.99
-52.37
-56.60
-61.08
-64.93
-67.11
-66.67
-63.16
-56.75
-48.17
-38.46
-28.61
-19.30
-10.91
-3.74
2.08
6.21
8.49
8.95
7.85
5.44
1.98
-2.24
-6.64
-10.32
-12.41
-12.44
-10.82
-8.68
-7.34
-7.62
-9.56
-12.60
-16.27
-20.67
-26.45
-34.27
-44.18
-55.21
-65.67
-73.75
-78.17
-78.47
-74.91
-68.19
-59.25
-49.31
-39.49
-30.90
-24.27
-19.86
-17.52
-16.89
-17.67
-19.71
-23.07
-27.73
-33.53
-39.91
-46.06
-51.09
-54.33
-55.58
-55.20
-54.00
-52.83
-52.32
-52.51
-52.97
-53.17
-52.86
-52.31
-52.18
-53.03
-54.76
-56.49
-56.66
-53.51
-45.56
-31.79
-11.62
14.99
47.05
81.89
115.06
141.24
156.04
157.75
148.10
131.47
112.88
95.88
81.60
69.20
57.38
45.73
35.04
26.62
21.19
18.21
16.25
13.87
10.47
6.52
3.03
0.65
-0.80
-2.50
-6.13
-13.03
-23.55
-36.60
-49.43
-57.84
-57.01
-43.15
-15.46
22.48
63.01
96.83
116.52
119.57
109.20
92.47
76.70
66.22
61.37
59.70
58.60
57.29
56.90
59.09
64.06
69.68
72.36
68.96
58.61
43.11
25.99
10.67
-1.06
-9.40
-15.77
-21.52
-27.08
-31.93
-35.35
-37.27
-38.49
-40.42
-44.32
-50.69
-59.24
-69.06
-78.92
-87.64
-94.00
-96.82
-95.16
-88.60
-77.41
-62.46
-45.09
-26.65
-8.33
8.78
23.72
35.63
43.87
48.25
49.16
47.45
44.22
40.29
35.92
30.76
24.16
15.62
5.22
-6.36
-18.16
-29.33
-39.52
-48.74
-57.15
-64.78
-71.40
-76.76
-80.87
-84.06
-86.79
-89.32
-91.38
-92.14
-90.65
-86.30
-78.93
-68.82
-56.41
-41.90
-25.36
-6.79
13.55
35.05
56.82
77.95
97.57
114.89
129.18
139.73
145.95
147.70
145.49
140.48
134.32
128.60
124.37
121.93
120.99
121.09
122.11
124.36
128.24
133.68
139.62
144.03
144.46
138.78
125.83
105.76
79.80
50.00
19.12
-9.59
-32.69
-47.11
-51.04
-44.65
-30.19
-11.32
8.04
24.88
37.71
46.46
51.86
54.72
55.61
54.85
52.74
49.75
46.47
43.45
40.91
38.74
36.43
33.42
29.23
23.67
16.83
8.98
0.46
-8.37
-17.21
-25.75
-33.67
-40.68
-46.51
-51.00
-54.07
-55.74
-56.19
-55.77
-55.02
-54.46
-54.39
